Dec. 2, 2021   15:37:01
Cyclic Voltammetry
File: d:\Data Source:  Experiment
Instrument Model:  CHI660E
Header: 
Note: 

Init E (V) = 0
High E (V) = 0.8
Low E (V) = 0
Init P/N = P
Scan Rate (V/s) = 0.05
Segment = 6
Sample Interval (V) = 0.001
Quiet Time (sec) = 0
Sensitivity (A/V) = 1e-4

Segment 1:
Ep = 0.259V
ip = 1.659e-4A
Ah = 1.008e-4C

Segment 2:
Ep = 0.200V
ip = -5.950e-5A
Ah = -6.486e-5C

Segment 3:
Ep = 0.262V
ip = 1.225e-4A
Ah = 7.143e-5C

Segment 4:
Ep = 0.207V
ip = -4.385e-5A
Ah = -5.047e-5C

Segment 5:
Ep = 0.270V
ip = 1.099e-4A
Ah = 6.726e-5C

Segment 6:
Ep = 0.213V
ip = -3.276e-5A
Ah = -4.029e-5C

Potential/V, Current/A

0.000, -4.828e-6
0.001, -4.547e-6
0.002, -4.334e-6
0.003, -4.156e-6
0.004, -4.000e-6
0.005, -3.856e-6
0.006, -3.723e-6
0.007, -3.602e-6
0.008, -3.489e-6
0.009, -3.383e-6
0.010, -3.283e-6
0.011, -3.186e-6
0.012, -3.098e-6
0.013, -3.013e-6
0.014, -2.933e-6
0.015, -2.856e-6
0.016, -2.783e-6
0.017, -2.713e-6
0.018, -2.647e-6
0.019, -2.584e-6
0.020, -2.525e-6
0.021, -2.467e-6
0.022, -2.411e-6
0.023, -2.358e-6
0.024, -2.306e-6
0.025, -2.253e-6
0.026, -2.202e-6
0.027, -2.156e-6
0.028, -2.109e-6
0.029, -2.065e-6
0.030, -2.022e-6
0.031, -1.980e-6
0.032, -1.940e-6
0.033, -1.899e-6
0.034, -1.859e-6
0.035, -1.820e-6
0.036, -1.781e-6
0.037, -1.745e-6
0.038, -1.709e-6
0.039, -1.674e-6
0.040, -1.640e-6
0.041, -1.604e-6
0.042, -1.571e-6
0.043, -1.540e-6
0.044, -1.509e-6
0.045, -1.478e-6
0.046, -1.450e-6
0.047, -1.420e-6
0.048, -1.391e-6
0.049, -1.362e-6
0.050, -1.335e-6
0.051, -1.306e-6
0.052, -1.278e-6
0.053, -1.252e-6
0.054, -1.226e-6
0.055, -1.201e-6
0.056, -1.175e-6
0.057, -1.150e-6
0.058, -1.124e-6
0.059, -1.100e-6
0.060, -1.077e-6
0.061, -1.054e-6
0.062, -1.030e-6
0.063, -1.007e-6
0.064, -9.836e-7
0.065, -9.611e-7
0.066, -9.392e-7
0.067, -9.154e-7
0.068, -8.923e-7
0.069, -8.710e-7
0.070, -8.476e-7
0.071, -8.256e-7
0.072, -8.042e-7
0.073, -7.838e-7
0.074, -7.643e-7
0.075, -7.440e-7
0.076, -7.240e-7
0.077, -7.043e-7
0.078, -6.843e-7
0.079, -6.659e-7
0.080, -6.459e-7
0.081, -6.273e-7
0.082, -6.104e-7
0.083, -5.905e-7
0.084, -5.726e-7
0.085, -5.557e-7
0.086, -5.366e-7
0.087, -5.192e-7
0.088, -5.013e-7
0.089, -4.837e-7
0.090, -4.669e-7
0.091, -4.502e-7
0.092, -4.346e-7
0.093, -4.190e-7
0.094, -4.017e-7
0.095, -3.854e-7
0.096, -3.681e-7
0.097, -3.521e-7
0.098, -3.362e-7
0.099, -3.203e-7
0.100, -3.049e-7
0.101, -2.906e-7
0.102, -2.727e-7
0.103, -2.546e-7
0.104, -2.411e-7
0.105, -2.258e-7
0.106, -2.124e-7
0.107, -1.965e-7
0.108, -1.829e-7
0.109, -1.668e-7
0.110, -1.523e-7
0.111, -1.367e-7
0.112, -1.208e-7
0.113, -1.039e-7
0.114, -8.909e-8
0.115, -7.169e-8
0.116, -5.635e-8
0.117, -4.180e-8
0.118, -2.440e-8
0.119, -1.005e-8
0.120, 4.109e-9
0.121, 1.994e-8
0.122, 3.577e-8
0.123, 5.130e-8
0.124, 6.752e-8
0.125, 8.453e-8
0.126, 1.019e-7
0.127, 1.177e-7
0.128, 1.362e-7
0.129, 1.548e-7
0.130, 1.702e-7
0.131, 1.902e-7
0.132, 2.071e-7
0.133, 2.241e-7
0.134, 2.432e-7
0.135, 2.618e-7
0.136, 2.819e-7
0.137, 3.011e-7
0.138, 3.211e-7
0.139, 3.417e-7
0.140, 3.630e-7
0.141, 3.841e-7
0.142, 4.075e-7
0.143, 4.297e-7
0.144, 4.528e-7
0.145, 4.765e-7
0.146, 4.990e-7
0.147, 5.264e-7
0.148, 5.529e-7
0.149, 5.792e-7
0.150, 6.065e-7
0.151, 6.332e-7
0.152, 6.628e-7
0.153, 6.944e-7
0.154, 7.255e-7
0.155, 7.582e-7
0.156, 7.896e-7
0.157, 8.222e-7
0.158, 8.588e-7
0.159, 8.952e-7
0.160, 9.348e-7
0.161, 9.765e-7
0.162, 1.017e-6
0.163, 1.062e-6
0.164, 1.111e-6
0.165, 1.158e-6
0.166, 1.209e-6
0.167, 1.263e-6
0.168, 1.317e-6
0.169, 1.375e-6
0.170, 1.435e-6
0.171, 1.501e-6
0.172, 1.568e-6
0.173, 1.641e-6
0.174, 1.719e-6
0.175, 1.797e-6
0.176, 1.882e-6
0.177, 1.970e-6
0.178, 2.061e-6
0.179, 2.165e-6
0.180, 2.274e-6
0.181, 2.390e-6
0.182, 2.514e-6
0.183, 2.642e-6
0.184, 2.781e-6
0.185, 2.933e-6
0.186, 3.093e-6
0.187, 3.268e-6
0.188, 3.449e-6
0.189, 3.643e-6
0.190, 3.867e-6
0.191, 4.100e-6
0.192, 4.364e-6
0.193, 4.650e-6
0.194, 4.960e-6
0.195, 5.306e-6
0.196, 5.688e-6
0.197, 6.109e-6
0.198, 6.584e-6
0.199, 7.111e-6
0.200, 7.704e-6
0.201, 8.359e-6
0.202, 9.092e-6
0.203, 9.916e-6
0.204, 1.085e-5
0.205, 1.190e-5
0.206, 1.307e-5
0.207, 1.436e-5
0.208, 1.582e-5
0.209, 1.743e-5
0.210, 1.919e-5
0.211, 2.113e-5
0.212, 2.325e-5
0.213, 2.553e-5
0.214, 2.799e-5
0.215, 3.060e-5
0.216, 3.337e-5
0.217, 3.628e-5
0.218, 3.934e-5
0.219, 4.252e-5
0.220, 4.581e-5
0.221, 4.920e-5
0.222, 5.269e-5
0.223, 5.626e-5
0.224, 5.993e-5
0.225, 6.366e-5
0.226, 6.742e-5
0.227, 7.126e-5
0.228, 7.514e-5
0.229, 7.906e-5
0.230, 8.301e-5
0.231, 8.698e-5
0.232, 9.097e-5
0.233, 9.498e-5
0.234, 9.896e-5
0.235, 1.030e-4
0.236, 1.069e-4
0.237, 1.109e-4
0.238, 1.148e-4
0.239, 1.187e-4
0.240, 1.225e-4
0.241, 1.263e-4
0.242, 1.299e-4
0.243, 1.336e-4
0.244, 1.371e-4
0.245, 1.405e-4
0.246, 1.438e-4
0.247, 1.469e-4
0.248, 1.500e-4
0.249, 1.528e-4
0.250, 1.555e-4
0.251, 1.580e-4
0.252, 1.602e-4
0.253, 1.623e-4
0.254, 1.640e-4
0.255, 1.655e-4
0.256, 1.666e-4
0.257, 1.675e-4
0.258, 1.680e-4
0.259, 1.681e-4
0.260, 1.678e-4
0.261, 1.670e-4
0.262, 1.659e-4
0.263, 1.644e-4
0.264, 1.626e-4
0.265, 1.603e-4
0.266, 1.577e-4
0.267, 1.548e-4
0.268, 1.516e-4
0.269, 1.481e-4
0.270, 1.444e-4
0.271, 1.405e-4
0.272, 1.364e-4
0.273, 1.322e-4
0.274, 1.279e-4
0.275, 1.236e-4
0.276, 1.193e-4
0.277, 1.149e-4
0.278, 1.106e-4
0.279, 1.064e-4
0.280, 1.023e-4
0.281, 9.831e-5
0.282, 9.444e-5
0.283, 9.073e-5
0.284, 8.715e-5
0.285, 8.374e-5
0.286, 8.050e-5
0.287, 7.740e-5
0.288, 7.449e-5
0.289, 7.173e-5
0.290, 6.912e-5
0.291, 6.667e-5
0.292, 6.436e-5
0.293, 6.217e-5
0.294, 6.012e-5
0.295, 5.820e-5
0.296, 5.640e-5
0.297, 5.471e-5
0.298, 5.312e-5
0.299, 5.165e-5
0.300, 5.026e-5
0.301, 4.897e-5
0.302, 4.775e-5
0.303, 4.659e-5
0.304, 4.551e-5
0.305, 4.449e-5
0.306, 4.352e-5
0.307, 4.263e-5
0.308, 4.178e-5
0.309, 4.095e-5
0.310, 4.017e-5
0.311, 3.940e-5
0.312, 3.868e-5
0.313, 3.799e-5
0.314, 3.732e-5
0.315, 3.671e-5
0.316, 3.610e-5
0.317, 3.552e-5
0.318, 3.498e-5
0.319, 3.444e-5
0.320, 3.395e-5
0.321, 3.347e-5
0.322, 3.301e-5
0.323, 3.257e-5
0.324, 3.214e-5
0.325, 3.172e-5
0.326, 3.133e-5
0.327, 3.095e-5
0.328, 3.059e-5
0.329, 3.023e-5
0.330, 2.989e-5
0.331, 2.956e-5
0.332, 2.923e-5
0.333, 2.892e-5
0.334, 2.864e-5
0.335, 2.834e-5
0.336, 2.805e-5
0.337, 2.778e-5
0.338, 2.751e-5
0.339, 2.726e-5
0.340, 2.701e-5
0.341, 2.677e-5
0.342, 2.652e-5
0.343, 2.628e-5
0.344, 2.607e-5
0.345, 2.584e-5
0.346, 2.562e-5
0.347, 2.542e-5
0.348, 2.520e-5
0.349, 2.499e-5
0.350, 2.480e-5
0.351, 2.458e-5
0.352, 2.441e-5
0.353, 2.422e-5
0.354, 2.402e-5
0.355, 2.384e-5
0.356, 2.366e-5
0.357, 2.347e-5
0.358, 2.330e-5
0.359, 2.315e-5
0.360, 2.298e-5
0.361, 2.280e-5
0.362, 2.262e-5
0.363, 2.247e-5
0.364, 2.231e-5
0.365, 2.216e-5
0.366, 2.202e-5
0.367, 2.186e-5
0.368, 2.172e-5
0.369, 2.158e-5
0.370, 2.143e-5
0.371, 2.131e-5
0.372, 2.119e-5
0.373, 2.106e-5
0.374, 2.094e-5
0.375, 2.081e-5
0.376, 2.070e-5
0.377, 2.058e-5
0.378, 2.047e-5
0.379, 2.037e-5
0.380, 2.026e-5
0.381, 2.016e-5
0.382, 2.007e-5
0.383, 1.996e-5
0.384, 1.988e-5
0.385, 1.980e-5
0.386, 1.971e-5
0.387, 1.963e-5
0.388, 1.955e-5
0.389, 1.947e-5
0.390, 1.940e-5
0.391, 1.933e-5
0.392, 1.926e-5
0.393, 1.919e-5
0.394, 1.912e-5
0.395, 1.907e-5
0.396, 1.900e-5
0.397, 1.895e-5
0.398, 1.890e-5
0.399, 1.882e-5
0.400, 1.878e-5
0.401, 1.872e-5
0.402, 1.866e-5
0.403, 1.863e-5
0.404, 1.858e-5
0.405, 1.852e-5
0.406, 1.848e-5
0.407, 1.843e-5
0.408, 1.839e-5
0.409, 1.836e-5
0.410, 1.832e-5
0.411, 1.830e-5
0.412, 1.825e-5
0.413, 1.822e-5
0.414, 1.820e-5
0.415, 1.817e-5
0.416, 1.815e-5
0.417, 1.813e-5
0.418, 1.810e-5
0.419, 1.809e-5
0.420, 1.806e-5
0.421, 1.804e-5
0.422, 1.803e-5
0.423, 1.802e-5
0.424, 1.801e-5
0.425, 1.800e-5
0.426, 1.798e-5
0.427, 1.798e-5
0.428, 1.797e-5
0.429, 1.798e-5
0.430, 1.798e-5
0.431, 1.797e-5
0.432, 1.797e-5
0.433, 1.798e-5
0.434, 1.797e-5
0.435, 1.799e-5
0.436, 1.800e-5
0.437, 1.800e-5
0.438, 1.802e-5
0.439, 1.802e-5
0.440, 1.804e-5
0.441, 1.805e-5
0.442, 1.806e-5
0.443, 1.809e-5
0.444, 1.810e-5
0.445, 1.811e-5
0.446, 1.814e-5
0.447, 1.816e-5
0.448, 1.820e-5
0.449, 1.822e-5
0.450, 1.824e-5
0.451, 1.827e-5
0.452, 1.830e-5
0.453, 1.832e-5
0.454, 1.835e-5
0.455, 1.838e-5
0.456, 1.841e-5
0.457, 1.845e-5
0.458, 1.847e-5
0.459, 1.852e-5
0.460, 1.856e-5
0.461, 1.860e-5
0.462, 1.865e-5
0.463, 1.868e-5
0.464, 1.871e-5
0.465, 1.876e-5
0.466, 1.879e-5
0.467, 1.884e-5
0.468, 1.889e-5
0.469, 1.893e-5
0.470, 1.898e-5
0.471, 1.902e-5
0.472, 1.906e-5
0.473, 1.911e-5
0.474, 1.916e-5
0.475, 1.922e-5
0.476, 1.926e-5
0.477, 1.930e-5
0.478, 1.937e-5
0.479, 1.941e-5
0.480, 1.948e-5
0.481, 1.953e-5
0.482, 1.958e-5
0.483, 1.964e-5
0.484, 1.969e-5
0.485, 1.975e-5
0.486, 1.981e-5
0.487, 1.987e-5
0.488, 1.994e-5
0.489, 2.001e-5
0.490, 2.006e-5
0.491, 2.014e-5
0.492, 2.020e-5
0.493, 2.027e-5
0.494, 2.035e-5
0.495, 2.041e-5
0.496, 2.048e-5
0.497, 2.056e-5
0.498, 2.062e-5
0.499, 2.071e-5
0.500, 2.079e-5
0.501, 2.087e-5
0.502, 2.096e-5
0.503, 2.104e-5
0.504, 2.112e-5
0.505, 2.121e-5
0.506, 2.130e-5
0.507, 2.140e-5
0.508, 2.150e-5
0.509, 2.159e-5
0.510, 2.169e-5
0.511, 2.178e-5
0.512, 2.192e-5
0.513, 2.205e-5
0.514, 2.214e-5
0.515, 2.225e-5
0.516, 2.235e-5
0.517, 2.246e-5
0.518, 2.258e-5
0.519, 2.269e-5
0.520, 2.282e-5
0.521, 2.296e-5
0.522, 2.309e-5
0.523, 2.322e-5
0.524, 2.335e-5
0.525, 2.349e-5
0.526, 2.364e-5
0.527, 2.377e-5
0.528, 2.392e-5
0.529, 2.407e-5
0.530, 2.421e-5
0.531, 2.437e-5
0.532, 2.454e-5
0.533, 2.470e-5
0.534, 2.486e-5
0.535, 2.503e-5
0.536, 2.520e-5
0.537, 2.537e-5
0.538, 2.554e-5
0.539, 2.573e-5
0.540, 2.591e-5
0.541, 2.609e-5
0.542, 2.629e-5
0.543, 2.646e-5
0.544, 2.667e-5
0.545, 2.688e-5
0.546, 2.707e-5
0.547, 2.727e-5
0.548, 2.748e-5
0.549, 2.769e-5
0.550, 2.790e-5
0.551, 2.812e-5
0.552, 2.834e-5
0.553, 2.856e-5
0.554, 2.877e-5
0.555, 2.901e-5
0.556, 2.923e-5
0.557, 2.946e-5
0.558, 2.971e-5
0.559, 2.993e-5
0.560, 3.017e-5
0.561, 3.041e-5
0.562, 3.064e-5
0.563, 3.090e-5
0.564, 3.116e-5
0.565, 3.141e-5
0.566, 3.165e-5
0.567, 3.189e-5
0.568, 3.214e-5
0.569, 3.238e-5
0.570, 3.263e-5
0.571, 3.288e-5
0.572, 3.312e-5
0.573, 3.337e-5
0.574, 3.362e-5
0.575, 3.387e-5
0.576, 3.413e-5
0.577, 3.440e-5
0.578, 3.464e-5
0.579, 3.489e-5
0.580, 3.514e-5
0.581, 3.539e-5
0.582, 3.564e-5
0.583, 3.589e-5
0.584, 3.613e-5
0.585, 3.638e-5
0.586, 3.663e-5
0.587, 3.689e-5
0.588, 3.713e-5
0.589, 3.738e-5
0.590, 3.764e-5
0.591, 3.787e-5
0.592, 3.812e-5
0.593, 3.837e-5
0.594, 3.862e-5
0.595, 3.889e-5
0.596, 3.914e-5
0.597, 3.938e-5
0.598, 3.963e-5
0.599, 3.986e-5
0.600, 4.012e-5
0.601, 4.037e-5
0.602, 4.062e-5
0.603, 4.088e-5
0.604, 4.111e-5
0.605, 4.136e-5
0.606, 4.163e-5
0.607, 4.187e-5
0.608, 4.213e-5
0.609, 4.239e-5
0.610, 4.263e-5
0.611, 4.289e-5
0.612, 4.316e-5
0.613, 4.342e-5
0.614, 4.370e-5
0.615, 4.398e-5
0.616, 4.425e-5
0.617, 4.451e-5
0.618, 4.478e-5
0.619, 4.507e-5
0.620, 4.534e-5
0.621, 4.561e-5
0.622, 4.590e-5
0.623, 4.618e-5
0.624, 4.647e-5
0.625, 4.677e-5
0.626, 4.706e-5
0.627, 4.739e-5
0.628, 4.769e-5
0.629, 4.801e-5
0.630, 4.833e-5
0.631, 4.865e-5
0.632, 4.897e-5
0.633, 4.929e-5
0.634, 4.964e-5
0.635, 5.000e-5
0.636, 5.035e-5
0.637, 5.070e-5
0.638, 5.107e-5
0.639, 5.144e-5
0.640, 5.183e-5
0.641, 5.223e-5
0.642, 5.262e-5
0.643, 5.304e-5
0.644, 5.345e-5
0.645, 5.387e-5
0.646, 5.431e-5
0.647, 5.475e-5
0.648, 5.521e-5
0.649, 5.568e-5
0.650, 5.614e-5
0.651, 5.662e-5
0.652, 5.711e-5
0.653, 5.764e-5
0.654, 5.818e-5
0.655, 5.869e-5
0.656, 5.924e-5
0.657, 5.980e-5
0.658, 6.035e-5
0.659, 6.094e-5
0.660, 6.154e-5
0.661, 6.216e-5
0.662, 6.278e-5
0.663, 6.343e-5
0.664, 6.408e-5
0.665, 6.476e-5
0.666, 6.546e-5
0.667, 6.618e-5
0.668, 6.689e-5
0.669, 6.762e-5
0.670, 6.839e-5
0.671, 6.916e-5
0.672, 6.997e-5
0.673, 7.081e-5
0.674, 7.164e-5
0.675, 7.251e-5
0.676, 7.338e-5
0.677, 7.428e-5
0.678, 7.522e-5
0.679, 7.618e-5
0.680, 7.716e-5
0.681, 7.815e-5
0.682, 7.916e-5
0.683, 8.022e-5
0.684, 8.130e-5
0.685, 8.239e-5
0.686, 8.353e-5
0.687, 8.466e-5
0.688, 8.585e-5
0.689, 8.706e-5
0.690, 8.830e-5
0.691, 8.957e-5
0.692, 9.087e-5
0.693, 9.220e-5
0.694, 9.357e-5
0.695, 9.494e-5
0.696, 9.636e-5
0.697, 9.780e-5
0.698, 9.928e-5
0.699, 1.008e-4
0.700, 1.024e-4
0.701, 1.040e-4
0.702, 1.056e-4
0.703, 1.072e-4
0.704, 1.089e-4
0.705, 1.107e-4
0.706, 1.124e-4
0.707, 1.142e-4
0.708, 1.160e-4
0.709, 1.179e-4
0.710, 1.198e-4
0.711, 1.217e-4
0.712, 1.237e-4
0.713, 1.257e-4
0.714, 1.278e-4
0.715, 1.298e-4
0.716, 1.320e-4
0.717, 1.341e-4
0.718, 1.364e-4
0.719, 1.386e-4
0.720, 1.409e-4
0.721, 1.432e-4
0.722, 1.455e-4
0.723, 1.479e-4
0.724, 1.503e-4
0.725, 1.528e-4
0.726, 1.553e-4
0.727, 1.578e-4
0.728, 1.604e-4
0.729, 1.630e-4
0.730, 1.656e-4
0.731, 1.684e-4
0.732, 1.711e-4
0.733, 1.738e-4
0.734, 1.766e-4
0.735, 1.794e-4
0.736, 1.823e-4
0.737, 1.851e-4
0.738, 1.881e-4
0.739, 1.910e-4
0.740, 1.940e-4
0.741, 1.971e-4
0.742, 2.002e-4
0.743, 2.033e-4
0.744, 2.065e-4
0.745, 2.097e-4
0.746, 2.129e-4
0.747, 2.162e-4
0.748, 2.195e-4
0.749, 2.228e-4
0.750, 2.261e-4
0.751, 2.295e-4
0.752, 2.329e-4
0.753, 2.364e-4
0.754, 2.398e-4
0.755, 2.433e-4
0.756, 2.469e-4
0.757, 2.505e-4
0.758, 2.541e-4
0.759, 2.578e-4
0.760, 2.615e-4
0.761, 2.652e-4
0.762, 2.690e-4
0.763, 2.728e-4
0.764, 2.766e-4
0.765, 2.805e-4
0.766, 2.843e-4
0.767, 2.882e-4
0.768, 2.922e-4
0.769, 2.961e-4
0.770, 3.001e-4
0.771, 3.041e-4
0.772, 3.081e-4
0.773, 3.122e-4
0.774, 3.162e-4
0.775, 3.203e-4
0.776, 3.244e-4
0.777, 3.286e-4
0.778, 3.327e-4
0.779, 3.369e-4
0.780, 3.412e-4
0.781, 3.454e-4
0.782, 3.497e-4
0.783, 3.540e-4
0.784, 3.583e-4
0.785, 3.627e-4
0.786, 3.670e-4
0.787, 3.715e-4
0.788, 3.759e-4
0.789, 3.803e-4
0.790, 3.848e-4
0.791, 3.892e-4
0.792, 3.937e-4
0.793, 3.982e-4
0.794, 4.027e-4
0.795, 4.073e-4
0.796, 4.118e-4
0.797, 4.164e-4
0.798, 4.210e-4
0.799, 4.257e-4
0.800, 4.295e-4
0.799, 4.270e-4
0.798, 4.205e-4
0.797, 4.138e-4
0.796, 4.072e-4
0.795, 4.007e-4
0.794, 3.943e-4
0.793, 3.880e-4
0.792, 3.819e-4
0.791, 3.758e-4
0.790, 3.697e-4
0.789, 3.637e-4
0.788, 3.579e-4
0.787, 3.521e-4
0.786, 3.463e-4
0.785, 3.406e-4
0.784, 3.350e-4
0.783, 3.294e-4
0.782, 3.239e-4
0.781, 3.184e-4
0.780, 3.130e-4
0.779, 3.076e-4
0.778, 3.023e-4
0.777, 2.970e-4
0.776, 2.918e-4
0.775, 2.866e-4
0.774, 2.815e-4
0.773, 2.765e-4
0.772, 2.715e-4
0.771, 2.665e-4
0.770, 2.616e-4
0.769, 2.568e-4
0.768, 2.520e-4
0.767, 2.472e-4
0.766, 2.425e-4
0.765, 2.379e-4
0.764, 2.334e-4
0.763, 2.289e-4
0.762, 2.244e-4
0.761, 2.200e-4
0.760, 2.156e-4
0.759, 2.113e-4
0.758, 2.070e-4
0.757, 2.028e-4
0.756, 1.987e-4
0.755, 1.945e-4
0.754, 1.905e-4
0.753, 1.864e-4
0.752, 1.825e-4
0.751, 1.786e-4
0.750, 1.747e-4
0.749, 1.709e-4
0.748, 1.671e-4
0.747, 1.634e-4
0.746, 1.597e-4
0.745, 1.560e-4
0.744, 1.524e-4
0.743, 1.489e-4
0.742, 1.454e-4
0.741, 1.420e-4
0.740, 1.386e-4
0.739, 1.353e-4
0.738, 1.320e-4
0.737, 1.288e-4
0.736, 1.256e-4
0.735, 1.224e-4
0.734, 1.193e-4
0.733, 1.163e-4
0.732, 1.133e-4
0.731, 1.104e-4
0.730, 1.074e-4
0.729, 1.046e-4
0.728, 1.017e-4
0.727, 9.896e-5
0.726, 9.624e-5
0.725, 9.355e-5
0.724, 9.093e-5
0.723, 8.835e-5
0.722, 8.581e-5
0.721, 8.334e-5
0.720, 8.089e-5
0.719, 7.849e-5
0.718, 7.613e-5
0.717, 7.379e-5
0.716, 7.148e-5
0.715, 6.925e-5
0.714, 6.709e-5
0.713, 6.496e-5
0.712, 6.287e-5
0.711, 6.083e-5
0.710, 5.882e-5
0.709, 5.686e-5
0.708, 5.496e-5
0.707, 5.307e-5
0.706, 5.122e-5
0.705, 4.945e-5
0.704, 4.769e-5
0.703, 4.596e-5
0.702, 4.428e-5
0.701, 4.262e-5
0.700, 4.103e-5
0.699, 3.947e-5
0.698, 3.792e-5
0.697, 3.643e-5
0.696, 3.496e-5
0.695, 3.354e-5
0.694, 3.216e-5
0.693, 3.079e-5
0.692, 2.947e-5
0.691, 2.817e-5
0.690, 2.690e-5
0.689, 2.569e-5
0.688, 2.449e-5
0.687, 2.332e-5
0.686, 2.218e-5
0.685, 2.106e-5
0.684, 1.997e-5
0.683, 1.893e-5
0.682, 1.791e-5
0.681, 1.692e-5
0.680, 1.595e-5
0.679, 1.500e-5
0.678, 1.406e-5
0.677, 1.316e-5
0.676, 1.230e-5
0.675, 1.145e-5
0.674, 1.062e-5
0.673, 9.821e-6
0.672, 9.032e-6
0.671, 8.266e-6
0.670, 7.525e-6
0.669, 6.787e-6
0.668, 6.088e-6
0.667, 5.402e-6
0.666, 4.741e-6
0.665, 4.075e-6
0.664, 3.437e-6
0.663, 2.831e-6
0.662, 2.251e-6
0.661, 1.677e-6
0.660, 1.124e-6
0.659, 5.661e-7
0.658, 1.600e-8
0.657, -4.924e-7
0.656, -1.009e-6
0.655, -1.500e-6
0.654, -1.978e-6
0.653, -2.449e-6
0.652, -2.899e-6
0.651, -3.349e-6
0.650, -3.777e-6
0.649, -4.190e-6
0.648, -4.602e-6
0.647, -4.994e-6
0.646, -5.387e-6
0.645, -5.783e-6
0.644, -6.140e-6
0.643, -6.507e-6
0.642, -6.854e-6
0.641, -7.194e-6
0.640, -7.538e-6
0.639, -7.854e-6
0.638, -8.162e-6
0.637, -8.473e-6
0.636, -8.774e-6
0.635, -9.073e-6
0.634, -9.361e-6
0.633, -9.643e-6
0.632, -9.928e-6
0.631, -1.019e-5
0.630, -1.044e-5
0.629, -1.070e-5
0.628, -1.093e-5
0.627, -1.119e-5
0.626, -1.143e-5
0.625, -1.166e-5
0.624, -1.188e-5
0.623, -1.210e-5
0.622, -1.230e-5
0.621, -1.251e-5
0.620, -1.272e-5
0.619, -1.292e-5
0.618, -1.311e-5
0.617, -1.330e-5
0.616, -1.350e-5
0.615, -1.368e-5
0.614, -1.387e-5
0.613, -1.406e-5
0.612, -1.420e-5
0.611, -1.436e-5
0.610, -1.452e-5
0.609, -1.467e-5
0.608, -1.483e-5
0.607, -1.498e-5
0.606, -1.511e-5
0.605, -1.525e-5
0.604, -1.538e-5
0.603, -1.552e-5
0.602, -1.565e-5
0.601, -1.577e-5
0.600, -1.590e-5
0.599, -1.601e-5
0.598, -1.612e-5
0.597, -1.623e-5
0.596, -1.632e-5
0.595, -1.643e-5
0.594, -1.654e-5
0.593, -1.662e-5
0.592, -1.672e-5
0.591, -1.680e-5
0.590, -1.689e-5
0.589, -1.698e-5
0.588, -1.705e-5
0.587, -1.713e-5
0.586, -1.719e-5
0.585, -1.725e-5
0.584, -1.732e-5
0.583, -1.737e-5
0.582, -1.743e-5
0.581, -1.749e-5
0.580, -1.752e-5
0.579, -1.755e-5
0.578, -1.760e-5
0.577, -1.762e-5
0.576, -1.766e-5
0.575, -1.770e-5
0.574, -1.772e-5
0.573, -1.774e-5
0.572, -1.775e-5
0.571, -1.777e-5
0.570, -1.778e-5
0.569, -1.778e-5
0.568, -1.780e-5
0.567, -1.779e-5
0.566, -1.778e-5
0.565, -1.778e-5
0.564, -1.776e-5
0.563, -1.777e-5
0.562, -1.777e-5
0.561, -1.773e-5
0.560, -1.771e-5
0.559, -1.769e-5
0.558, -1.766e-5
0.557, -1.763e-5
0.556, -1.761e-5
0.555, -1.757e-5
0.554, -1.753e-5
0.553, -1.748e-5
0.552, -1.744e-5
0.551, -1.739e-5
0.550, -1.736e-5
0.549, -1.732e-5
0.548, -1.726e-5
0.547, -1.722e-5
0.546, -1.717e-5
0.545, -1.711e-5
0.544, -1.707e-5
0.543, -1.702e-5
0.542, -1.696e-5
0.541, -1.690e-5
0.540, -1.684e-5
0.539, -1.679e-5
0.538, -1.674e-5
0.537, -1.667e-5
0.536, -1.661e-5
0.535, -1.654e-5
0.534, -1.648e-5
0.533, -1.644e-5
0.532, -1.636e-5
0.531, -1.630e-5
0.530, -1.624e-5
0.529, -1.617e-5
0.528, -1.612e-5
0.527, -1.605e-5
0.526, -1.599e-5
0.525, -1.593e-5
0.524, -1.586e-5
0.523, -1.580e-5
0.522, -1.573e-5
0.521, -1.566e-5
0.520, -1.561e-5
0.519, -1.554e-5
0.518, -1.548e-5
0.517, -1.543e-5
0.516, -1.535e-5
0.515, -1.530e-5
0.514, -1.524e-5
0.513, -1.518e-5
0.512, -1.514e-5
0.511, -1.510e-5
0.510, -1.502e-5
0.509, -1.497e-5
0.508, -1.490e-5
0.507, -1.484e-5
0.506, -1.478e-5
0.505, -1.473e-5
0.504, -1.467e-5
0.503, -1.460e-5
0.502, -1.454e-5
0.501, -1.449e-5
0.500, -1.443e-5
0.499, -1.439e-5
0.498, -1.434e-5
0.497, -1.428e-5
0.496, -1.424e-5
0.495, -1.419e-5
0.494, -1.413e-5
0.493, -1.410e-5
0.492, -1.404e-5
0.491, -1.399e-5
0.490, -1.395e-5
0.489, -1.390e-5
0.488, -1.386e-5
0.487, -1.382e-5
0.486, -1.377e-5
0.485, -1.373e-5
0.484, -1.368e-5
0.483, -1.365e-5
0.482, -1.361e-5
0.481, -1.356e-5
0.480, -1.354e-5
0.479, -1.351e-5
0.478, -1.346e-5
0.477, -1.343e-5
0.476, -1.339e-5
0.475, -1.336e-5
0.474, -1.332e-5
0.473, -1.329e-5
0.472, -1.327e-5
0.471, -1.323e-5
0.470, -1.320e-5
0.469, -1.318e-5
0.468, -1.314e-5
0.467, -1.312e-5
0.466, -1.310e-5
0.465, -1.306e-5
0.464, -1.304e-5
0.463, -1.301e-5
0.462, -1.299e-5
0.461, -1.298e-5
0.460, -1.296e-5
0.459, -1.294e-5
0.458, -1.291e-5
0.457, -1.288e-5
0.456, -1.287e-5
0.455, -1.284e-5
0.454, -1.283e-5
0.453, -1.282e-5
0.452, -1.279e-5
0.451, -1.278e-5
0.450, -1.277e-5
0.449, -1.275e-5
0.448, -1.274e-5
0.447, -1.273e-5
0.446, -1.271e-5
0.445, -1.271e-5
0.444, -1.269e-5
0.443, -1.268e-5
0.442, -1.268e-5
0.441, -1.266e-5
0.440, -1.266e-5
0.439, -1.265e-5
0.438, -1.263e-5
0.437, -1.264e-5
0.436, -1.262e-5
0.435, -1.262e-5
0.434, -1.262e-5
0.433, -1.260e-5
0.432, -1.261e-5
0.431, -1.261e-5
0.430, -1.260e-5
0.429, -1.260e-5
0.428, -1.260e-5
0.427, -1.260e-5
0.426, -1.260e-5
0.425, -1.260e-5
0.424, -1.260e-5
0.423, -1.259e-5
0.422, -1.260e-5
0.421, -1.260e-5
0.420, -1.259e-5
0.419, -1.260e-5
0.418, -1.261e-5
0.417, -1.261e-5
0.416, -1.262e-5
0.415, -1.263e-5
0.414, -1.263e-5
0.413, -1.264e-5
0.412, -1.264e-5
0.411, -1.265e-5
0.410, -1.266e-5
0.409, -1.267e-5
0.408, -1.268e-5
0.407, -1.268e-5
0.406, -1.269e-5
0.405, -1.271e-5
0.404, -1.270e-5
0.403, -1.273e-5
0.402, -1.275e-5
0.401, -1.274e-5
0.400, -1.277e-5
0.399, -1.278e-5
0.398, -1.278e-5
0.397, -1.281e-5
0.396, -1.283e-5
0.395, -1.285e-5
0.394, -1.286e-5
0.393, -1.288e-5
0.392, -1.290e-5
0.391, -1.292e-5
0.390, -1.295e-5
0.389, -1.299e-5
0.388, -1.300e-5
0.387, -1.302e-5
0.386, -1.305e-5
0.385, -1.306e-5
0.384, -1.310e-5
0.383, -1.313e-5
0.382, -1.316e-5
0.381, -1.319e-5
0.380, -1.322e-5
0.379, -1.325e-5
0.378, -1.329e-5
0.377, -1.332e-5
0.376, -1.336e-5
0.375, -1.340e-5
0.374, -1.344e-5
0.373, -1.347e-5
0.372, -1.350e-5
0.371, -1.356e-5
0.370, -1.361e-5
0.369, -1.364e-5
0.368, -1.369e-5
0.367, -1.374e-5
0.366, -1.378e-5
0.365, -1.383e-5
0.364, -1.388e-5
0.363, -1.393e-5
0.362, -1.399e-5
0.361, -1.403e-5
0.360, -1.409e-5
0.359, -1.415e-5
0.358, -1.423e-5
0.357, -1.430e-5
0.356, -1.434e-5
0.355, -1.441e-5
0.354, -1.447e-5
0.353, -1.452e-5
0.352, -1.460e-5
0.351, -1.468e-5
0.350, -1.475e-5
0.349, -1.483e-5
0.348, -1.490e-5
0.347, -1.498e-5
0.346, -1.505e-5
0.345, -1.513e-5
0.344, -1.522e-5
0.343, -1.529e-5
0.342, -1.538e-5
0.341, -1.547e-5
0.340, -1.556e-5
0.339, -1.565e-5
0.338, -1.575e-5
0.337, -1.584e-5
0.336, -1.594e-5
0.335, -1.604e-5
0.334, -1.613e-5
0.333, -1.624e-5
0.332, -1.634e-5
0.331, -1.645e-5
0.330, -1.656e-5
0.329, -1.667e-5
0.328, -1.679e-5
0.327, -1.691e-5
0.326, -1.703e-5
0.325, -1.716e-5
0.324, -1.727e-5
0.323, -1.740e-5
0.322, -1.754e-5
0.321, -1.766e-5
0.320, -1.780e-5
0.319, -1.793e-5
0.318, -1.807e-5
0.317, -1.821e-5
0.316, -1.835e-5
0.315, -1.851e-5
0.314, -1.866e-5
0.313, -1.881e-5
0.312, -1.897e-5
0.311, -1.912e-5
0.310, -1.928e-5
0.309, -1.945e-5
0.308, -1.961e-5
0.307, -1.982e-5
0.306, -2.002e-5
0.305, -2.017e-5
0.304, -2.035e-5
0.303, -2.052e-5
0.302, -2.071e-5
0.301, -2.091e-5
0.300, -2.111e-5
0.299, -2.130e-5
0.298, -2.151e-5
0.297, -2.171e-5
0.296, -2.192e-5
0.295, -2.213e-5
0.294, -2.236e-5
0.293, -2.259e-5
0.292, -2.280e-5
0.291, -2.303e-5
0.290, -2.327e-5
0.289, -2.351e-5
0.288, -2.376e-5
0.287, -2.401e-5
0.286, -2.427e-5
0.285, -2.454e-5
0.284, -2.480e-5
0.283, -2.508e-5
0.282, -2.535e-5
0.281, -2.563e-5
0.280, -2.593e-5
0.279, -2.621e-5
0.278, -2.650e-5
0.277, -2.682e-5
0.276, -2.712e-5
0.275, -2.746e-5
0.274, -2.779e-5
0.273, -2.810e-5
0.272, -2.845e-5
0.271, -2.879e-5
0.270, -2.914e-5
0.269, -2.951e-5
0.268, -2.987e-5
0.267, -3.025e-5
0.266, -3.063e-5
0.265, -3.101e-5
0.264, -3.141e-5
0.263, -3.182e-5
0.262, -3.224e-5
0.261, -3.268e-5
0.260, -3.309e-5
0.259, -3.354e-5
0.258, -3.399e-5
0.257, -3.445e-5
0.256, -3.493e-5
0.255, -3.543e-5
0.254, -3.592e-5
0.253, -3.642e-5
0.252, -3.692e-5
0.251, -3.745e-5
0.250, -3.797e-5
0.249, -3.852e-5
0.248, -3.907e-5
0.247, -3.964e-5
0.246, -4.022e-5
0.245, -4.082e-5
0.244, -4.142e-5
0.243, -4.204e-5
0.242, -4.267e-5
0.241, -4.331e-5
0.240, -4.396e-5
0.239, -4.462e-5
0.238, -4.530e-5
0.237, -4.599e-5
0.236, -4.670e-5
0.235, -4.742e-5
0.234, -4.815e-5
0.233, -4.889e-5
0.232, -4.965e-5
0.231, -5.041e-5
0.230, -5.119e-5
0.229, -5.199e-5
0.228, -5.279e-5
0.227, -5.361e-5
0.226, -5.443e-5
0.225, -5.526e-5
0.224, -5.612e-5
0.223, -5.698e-5
0.222, -5.782e-5
0.221, -5.868e-5
0.220, -5.953e-5
0.219, -6.040e-5
0.218, -6.125e-5
0.217, -6.211e-5
0.216, -6.296e-5
0.215, -6.381e-5
0.214, -6.465e-5
0.213, -6.546e-5
0.212, -6.624e-5
0.211, -6.702e-5
0.210, -6.777e-5
0.209, -6.846e-5
0.208, -6.914e-5
0.207, -6.976e-5
0.206, -7.032e-5
0.205, -7.084e-5
0.204, -7.130e-5
0.203, -7.166e-5
0.202, -7.191e-5
0.201, -7.206e-5
0.200, -7.211e-5
0.199, -7.201e-5
0.198, -7.178e-5
0.197, -7.139e-5
0.196, -7.079e-5
0.195, -7.001e-5
0.194, -6.901e-5
0.193, -6.777e-5
0.192, -6.630e-5
0.191, -6.458e-5
0.190, -6.260e-5
0.189, -6.041e-5
0.188, -5.800e-5
0.187, -5.543e-5
0.186, -5.280e-5
0.185, -5.016e-5
0.184, -4.759e-5
0.183, -4.512e-5
0.182, -4.282e-5
0.181, -4.068e-5
0.180, -3.869e-5
0.179, -3.689e-5
0.178, -3.523e-5
0.177, -3.370e-5
0.176, -3.231e-5
0.175, -3.103e-5
0.174, -2.986e-5
0.173, -2.878e-5
0.172, -2.778e-5
0.171, -2.685e-5
0.170, -2.599e-5
0.169, -2.518e-5
0.168, -2.443e-5
0.167, -2.371e-5
0.166, -2.305e-5
0.165, -2.242e-5
0.164, -2.183e-5
0.163, -2.128e-5
0.162, -2.076e-5
0.161, -2.025e-5
0.160, -1.978e-5
0.159, -1.932e-5
0.158, -1.889e-5
0.157, -1.848e-5
0.156, -1.810e-5
0.155, -1.773e-5
0.154, -1.737e-5
0.153, -1.703e-5
0.152, -1.671e-5
0.151, -1.639e-5
0.150, -1.608e-5
0.149, -1.579e-5
0.148, -1.551e-5
0.147, -1.524e-5
0.146, -1.499e-5
0.145, -1.474e-5
0.144, -1.450e-5
0.143, -1.427e-5
0.142, -1.404e-5
0.141, -1.383e-5
0.140, -1.362e-5
0.139, -1.342e-5
0.138, -1.323e-5
0.137, -1.303e-5
0.136, -1.285e-5
0.135, -1.267e-5
0.134, -1.250e-5
0.133, -1.234e-5
0.132, -1.219e-5
0.131, -1.202e-5
0.130, -1.187e-5
0.129, -1.172e-5
0.128, -1.158e-5
0.127, -1.144e-5
0.126, -1.130e-5
0.125, -1.117e-5
0.124, -1.104e-5
0.123, -1.091e-5
0.122, -1.079e-5
0.121, -1.067e-5
0.120, -1.055e-5
0.119, -1.044e-5
0.118, -1.033e-5
0.117, -1.023e-5
0.116, -1.012e-5
0.115, -1.002e-5
0.114, -9.922e-6
0.113, -9.819e-6
0.112, -9.720e-6
0.111, -9.628e-6
0.110, -9.533e-6
0.109, -9.441e-6
0.108, -9.353e-6
0.107, -9.265e-6
0.106, -9.182e-6
0.105, -9.104e-6
0.104, -9.022e-6
0.103, -8.940e-6
0.102, -8.862e-6
0.101, -8.780e-6
0.100, -8.702e-6
0.099, -8.629e-6
0.098, -8.557e-6
0.097, -8.482e-6
0.096, -8.408e-6
0.095, -8.340e-6
0.094, -8.273e-6
0.093, -8.211e-6
0.092, -8.145e-6
0.091, -8.078e-6
0.090, -8.015e-6
0.089, -7.957e-6
0.088, -7.901e-6
0.087, -7.842e-6
0.086, -7.786e-6
0.085, -7.731e-6
0.084, -7.676e-6
0.083, -7.620e-6
0.082, -7.567e-6
0.081, -7.518e-6
0.080, -7.457e-6
0.079, -7.399e-6
0.078, -7.347e-6
0.077, -7.297e-6
0.076, -7.246e-6
0.075, -7.197e-6
0.074, -7.152e-6
0.073, -7.102e-6
0.072, -7.054e-6
0.071, -7.009e-6
0.070, -6.965e-6
0.069, -6.921e-6
0.068, -6.877e-6
0.067, -6.834e-6
0.066, -6.790e-6
0.065, -6.746e-6
0.064, -6.706e-6
0.063, -6.663e-6
0.062, -6.621e-6
0.061, -6.581e-6
0.060, -6.542e-6
0.059, -6.505e-6
0.058, -6.469e-6
0.057, -6.433e-6
0.056, -6.398e-6
0.055, -6.362e-6
0.054, -6.325e-6
0.053, -6.289e-6
0.052, -6.250e-6
0.051, -6.217e-6
0.050, -6.183e-6
0.049, -6.146e-6
0.048, -6.114e-6
0.047, -6.080e-6
0.046, -6.046e-6
0.045, -6.013e-6
0.044, -5.983e-6
0.043, -5.951e-6
0.042, -5.921e-6
0.041, -5.890e-6
0.040, -5.860e-6
0.039, -5.828e-6
0.038, -5.798e-6
0.037, -5.767e-6
0.036, -5.737e-6
0.035, -5.708e-6
0.034, -5.681e-6
0.033, -5.654e-6
0.032, -5.626e-6
0.031, -5.599e-6
0.030, -5.570e-6
0.029, -5.543e-6
0.028, -5.519e-6
0.027, -5.493e-6
0.026, -5.468e-6
0.025, -5.441e-6
0.024, -5.417e-6
0.023, -5.392e-6
0.022, -5.368e-6
0.021, -5.342e-6
0.020, -5.316e-6
0.019, -5.293e-6
0.018, -5.275e-6
0.017, -5.249e-6
0.016, -5.226e-6
0.015, -5.204e-6
0.014, -5.181e-6
0.013, -5.158e-6
0.012, -5.135e-6
0.011, -5.109e-6
0.010, -5.087e-6
0.009, -5.064e-6
0.008, -5.041e-6
0.007, -5.018e-6
0.006, -4.996e-6
0.005, -4.975e-6
0.004, -4.953e-6
0.003, -4.931e-6
0.002, -4.913e-6
0.001, -4.892e-6
0.000, -4.811e-6
0.001, -4.576e-6
0.002, -4.446e-6
0.003, -4.361e-6
0.004, -4.291e-6
0.005, -4.229e-6
0.006, -4.169e-6
0.007, -4.114e-6
0.008, -4.060e-6
0.009, -4.008e-6
0.010, -3.960e-6
0.011, -3.913e-6
0.012, -3.865e-6
0.013, -3.821e-6
0.014, -3.776e-6
0.015, -3.734e-6
0.016, -3.691e-6
0.017, -3.652e-6
0.018, -3.614e-6
0.019, -3.574e-6
0.020, -3.536e-6
0.021, -3.502e-6
0.022, -3.464e-6
0.023, -3.429e-6
0.024, -3.395e-6
0.025, -3.360e-6
0.026, -3.327e-6
0.027, -3.294e-6
0.028, -3.263e-6
0.029, -3.229e-6
0.030, -3.197e-6
0.031, -3.165e-6
0.032, -3.136e-6
0.033, -3.107e-6
0.034, -3.077e-6
0.035, -3.046e-6
0.036, -3.017e-6
0.037, -2.990e-6
0.038, -2.958e-6
0.039, -2.929e-6
0.040, -2.902e-6
0.041, -2.875e-6
0.042, -2.847e-6
0.043, -2.820e-6
0.044, -2.792e-6
0.045, -2.766e-6
0.046, -2.739e-6
0.047, -2.712e-6
0.048, -2.686e-6
0.049, -2.659e-6
0.050, -2.636e-6
0.051, -2.611e-6
0.052, -2.586e-6
0.053, -2.562e-6
0.054, -2.539e-6
0.055, -2.514e-6
0.056, -2.491e-6
0.057, -2.465e-6
0.058, -2.441e-6
0.059, -2.417e-6
0.060, -2.395e-6
0.061, -2.371e-6
0.062, -2.349e-6
0.063, -2.326e-6
0.064, -2.301e-6
0.065, -2.277e-6
0.066, -2.254e-6
0.067, -2.233e-6
0.068, -2.212e-6
0.069, -2.191e-6
0.070, -2.167e-6
0.071, -2.144e-6
0.072, -2.123e-6
0.073, -2.100e-6
0.074, -2.078e-6
0.075, -2.058e-6
0.076, -2.035e-6
0.077, -2.012e-6
0.078, -1.989e-6
0.079, -1.968e-6
0.080, -1.948e-6
0.081, -1.926e-6
0.082, -1.906e-6
0.083, -1.883e-6
0.084, -1.861e-6
0.085, -1.841e-6
0.086, -1.819e-6
0.087, -1.798e-6
0.088, -1.776e-6
0.089, -1.753e-6
0.090, -1.733e-6
0.091, -1.711e-6
0.092, -1.692e-6
0.093, -1.672e-6
0.094, -1.651e-6
0.095, -1.632e-6
0.096, -1.611e-6
0.097, -1.589e-6
0.098, -1.569e-6
0.099, -1.548e-6
0.100, -1.529e-6
0.101, -1.509e-6
0.102, -1.487e-6
0.103, -1.466e-6
0.104, -1.447e-6
0.105, -1.427e-6
0.106, -1.407e-6
0.107, -1.386e-6
0.108, -1.367e-6
0.109, -1.347e-6
0.110, -1.326e-6
0.111, -1.308e-6
0.112, -1.289e-6
0.113, -1.269e-6
0.114, -1.250e-6
0.115, -1.228e-6
0.116, -1.206e-6
0.117, -1.189e-6
0.118, -1.169e-6
0.119, -1.150e-6
0.120, -1.130e-6
0.121, -1.110e-6
0.122, -1.090e-6
0.123, -1.070e-6
0.124, -1.051e-6
0.125, -1.031e-6
0.126, -1.008e-6
0.127, -9.899e-7
0.128, -9.686e-7
0.129, -9.470e-7
0.130, -9.278e-7
0.131, -9.078e-7
0.132, -8.852e-7
0.133, -8.637e-7
0.134, -8.399e-7
0.135, -8.186e-7
0.136, -7.983e-7
0.137, -7.781e-7
0.138, -7.578e-7
0.139, -7.363e-7
0.140, -7.147e-7
0.141, -6.941e-7
0.142, -6.720e-7
0.143, -6.501e-7
0.144, -6.273e-7
0.145, -6.031e-7
0.146, -5.797e-7
0.147, -5.552e-7
0.148, -5.290e-7
0.149, -5.062e-7
0.150, -4.796e-7
0.151, -4.557e-7
0.152, -4.323e-7
0.153, -4.065e-7
0.154, -3.788e-7
0.155, -3.508e-7
0.156, -3.234e-7
0.157, -2.957e-7
0.158, -2.653e-7
0.159, -2.377e-7
0.160, -2.068e-7
0.161, -1.753e-7
0.162, -1.437e-7
0.163, -1.091e-7
0.164, -7.434e-8
0.165, -3.767e-8
0.166, 2.733e-9
0.167, 4.078e-8
0.168, 8.079e-8
0.169, 1.239e-7
0.170, 1.642e-7
0.171, 2.098e-7
0.172, 2.567e-7
0.173, 3.049e-7
0.174, 3.588e-7
0.175, 4.085e-7
0.176, 4.641e-7
0.177, 5.237e-7
0.178, 5.864e-7
0.179, 6.521e-7
0.180, 7.205e-7
0.181, 7.896e-7
0.182, 8.669e-7
0.183, 9.469e-7
0.184, 1.033e-6
0.185, 1.128e-6
0.186, 1.222e-6
0.187, 1.325e-6
0.188, 1.434e-6
0.189, 1.554e-6
0.190, 1.680e-6
0.191, 1.812e-6
0.192, 1.957e-6
0.193, 2.116e-6
0.194, 2.284e-6
0.195, 2.475e-6
0.196, 2.679e-6
0.197, 2.898e-6
0.198, 3.142e-6
0.199, 3.407e-6
0.200, 3.696e-6
0.201, 4.024e-6
0.202, 4.385e-6
0.203, 4.786e-6
0.204, 5.227e-6
0.205, 5.725e-6
0.206, 6.281e-6
0.207, 6.886e-6
0.208, 7.575e-6
0.209, 8.331e-6
0.210, 9.163e-6
0.211, 1.010e-5
0.212, 1.112e-5
0.213, 1.225e-5
0.214, 1.348e-5
0.215, 1.483e-5
0.216, 1.629e-5
0.217, 1.786e-5
0.218, 1.955e-5
0.219, 2.136e-5
0.220, 2.328e-5
0.221, 2.530e-5
0.222, 2.745e-5
0.223, 2.967e-5
0.224, 3.202e-5
0.225, 3.445e-5
0.226, 3.695e-5
0.227, 3.955e-5
0.228, 4.221e-5
0.229, 4.494e-5
0.230, 4.774e-5
0.231, 5.058e-5
0.232, 5.349e-5
0.233, 5.645e-5
0.234, 5.943e-5
0.235, 6.246e-5
0.236, 6.553e-5
0.237, 6.862e-5
0.238, 7.175e-5
0.239, 7.486e-5
0.240, 7.798e-5
0.241, 8.110e-5
0.242, 8.417e-5
0.243, 8.726e-5
0.244, 9.031e-5
0.245, 9.331e-5
0.246, 9.628e-5
0.247, 9.916e-5
0.248, 1.020e-4
0.249, 1.047e-4
0.250, 1.073e-4
0.251, 1.098e-4
0.252, 1.121e-4
0.253, 1.143e-4
0.254, 1.163e-4
0.255, 1.182e-4
0.256, 1.198e-4
0.257, 1.212e-4
0.258, 1.224e-4
0.259, 1.233e-4
0.260, 1.239e-4
0.261, 1.242e-4
0.262, 1.242e-4
0.263, 1.240e-4
0.264, 1.234e-4
0.265, 1.225e-4
0.266, 1.213e-4
0.267, 1.198e-4
0.268, 1.181e-4
0.269, 1.160e-4
0.270, 1.138e-4
0.271, 1.114e-4
0.272, 1.088e-4
0.273, 1.060e-4
0.274, 1.032e-4
0.275, 1.002e-4
0.276, 9.719e-5
0.277, 9.415e-5
0.278, 9.108e-5
0.279, 8.800e-5
0.280, 8.495e-5
0.281, 8.193e-5
0.282, 7.896e-5
0.283, 7.608e-5
0.284, 7.327e-5
0.285, 7.057e-5
0.286, 6.798e-5
0.287, 6.550e-5
0.288, 6.317e-5
0.289, 6.096e-5
0.290, 5.886e-5
0.291, 5.690e-5
0.292, 5.505e-5
0.293, 5.331e-5
0.294, 5.169e-5
0.295, 5.017e-5
0.296, 4.873e-5
0.297, 4.737e-5
0.298, 4.606e-5
0.299, 4.485e-5
0.300, 4.370e-5
0.301, 4.261e-5
0.302, 4.159e-5
0.303, 4.059e-5
0.304, 3.966e-5
0.305, 3.876e-5
0.306, 3.791e-5
0.307, 3.712e-5
0.308, 3.639e-5
0.309, 3.566e-5
0.310, 3.497e-5
0.311, 3.430e-5
0.312, 3.366e-5
0.313, 3.306e-5
0.314, 3.248e-5
0.315, 3.194e-5
0.316, 3.140e-5
0.317, 3.090e-5
0.318, 3.042e-5
0.319, 2.995e-5
0.320, 2.952e-5
0.321, 2.910e-5
0.322, 2.869e-5
0.323, 2.829e-5
0.324, 2.791e-5
0.325, 2.755e-5
0.326, 2.720e-5
0.327, 2.687e-5
0.328, 2.654e-5
0.329, 2.623e-5
0.330, 2.591e-5
0.331, 2.562e-5
0.332, 2.533e-5
0.333, 2.506e-5
0.334, 2.480e-5
0.335, 2.453e-5
0.336, 2.429e-5
0.337, 2.403e-5
0.338, 2.378e-5
0.339, 2.357e-5
0.340, 2.334e-5
0.341, 2.312e-5
0.342, 2.291e-5
0.343, 2.268e-5
0.344, 2.248e-5
0.345, 2.229e-5
0.346, 2.209e-5
0.347, 2.191e-5
0.348, 2.171e-5
0.349, 2.153e-5
0.350, 2.137e-5
0.351, 2.118e-5
0.352, 2.102e-5
0.353, 2.087e-5
0.354, 2.070e-5
0.355, 2.055e-5
0.356, 2.040e-5
0.357, 2.026e-5
0.358, 2.013e-5
0.359, 2.001e-5
0.360, 1.987e-5
0.361, 1.975e-5
0.362, 1.962e-5
0.363, 1.950e-5
0.364, 1.938e-5
0.365, 1.927e-5
0.366, 1.917e-5
0.367, 1.906e-5
0.368, 1.897e-5
0.369, 1.887e-5
0.370, 1.877e-5
0.371, 1.869e-5
0.372, 1.861e-5
0.373, 1.852e-5
0.374, 1.843e-5
0.375, 1.834e-5
0.376, 1.827e-5
0.377, 1.820e-5
0.378, 1.813e-5
0.379, 1.806e-5
0.380, 1.798e-5
0.381, 1.791e-5
0.382, 1.785e-5
0.383, 1.778e-5
0.384, 1.773e-5
0.385, 1.768e-5
0.386, 1.761e-5
0.387, 1.756e-5
0.388, 1.751e-5
0.389, 1.746e-5
0.390, 1.741e-5
0.391, 1.736e-5
0.392, 1.732e-5
0.393, 1.727e-5
0.394, 1.723e-5
0.395, 1.719e-5
0.396, 1.715e-5
0.397, 1.711e-5
0.398, 1.709e-5
0.399, 1.704e-5
0.400, 1.701e-5
0.401, 1.699e-5
0.402, 1.695e-5
0.403, 1.693e-5
0.404, 1.691e-5
0.405, 1.688e-5
0.406, 1.687e-5
0.407, 1.684e-5
0.408, 1.682e-5
0.409, 1.681e-5
0.410, 1.679e-5
0.411, 1.679e-5
0.412, 1.677e-5
0.413, 1.676e-5
0.414, 1.676e-5
0.415, 1.674e-5
0.416, 1.675e-5
0.417, 1.674e-5
0.418, 1.673e-5
0.419, 1.674e-5
0.420, 1.674e-5
0.421, 1.674e-5
0.422, 1.675e-5
0.423, 1.675e-5
0.424, 1.676e-5
0.425, 1.677e-5
0.426, 1.677e-5
0.427, 1.678e-5
0.428, 1.678e-5
0.429, 1.680e-5
0.430, 1.682e-5
0.431, 1.682e-5
0.432, 1.685e-5
0.433, 1.687e-5
0.434, 1.687e-5
0.435, 1.690e-5
0.436, 1.693e-5
0.437, 1.694e-5
0.438, 1.697e-5
0.439, 1.699e-5
0.440, 1.702e-5
0.441, 1.705e-5
0.442, 1.708e-5
0.443, 1.712e-5
0.444, 1.714e-5
0.445, 1.717e-5
0.446, 1.721e-5
0.447, 1.723e-5
0.448, 1.727e-5
0.449, 1.732e-5
0.450, 1.735e-5
0.451, 1.738e-5
0.452, 1.742e-5
0.453, 1.746e-5
0.454, 1.750e-5
0.455, 1.755e-5
0.456, 1.760e-5
0.457, 1.765e-5
0.458, 1.768e-5
0.459, 1.774e-5
0.460, 1.778e-5
0.461, 1.784e-5
0.462, 1.791e-5
0.463, 1.794e-5
0.464, 1.798e-5
0.465, 1.803e-5
0.466, 1.807e-5
0.467, 1.814e-5
0.468, 1.819e-5
0.469, 1.825e-5
0.470, 1.831e-5
0.471, 1.836e-5
0.472, 1.842e-5
0.473, 1.847e-5
0.474, 1.853e-5
0.475, 1.859e-5
0.476, 1.864e-5
0.477, 1.869e-5
0.478, 1.875e-5
0.479, 1.880e-5
0.480, 1.887e-5
0.481, 1.894e-5
0.482, 1.898e-5
0.483, 1.905e-5
0.484, 1.910e-5
0.485, 1.915e-5
0.486, 1.922e-5
0.487, 1.927e-5
0.488, 1.934e-5
0.489, 1.940e-5
0.490, 1.945e-5
0.491, 1.952e-5
0.492, 1.958e-5
0.493, 1.964e-5
0.494, 1.971e-5
0.495, 1.977e-5
0.496, 1.985e-5
0.497, 1.993e-5
0.498, 2.000e-5
0.499, 2.008e-5
0.500, 2.014e-5
0.501, 2.019e-5
0.502, 2.026e-5
0.503, 2.034e-5
0.504, 2.042e-5
0.505, 2.049e-5
0.506, 2.058e-5
0.507, 2.066e-5
0.508, 2.073e-5
0.509, 2.081e-5
0.510, 2.090e-5
0.511, 2.099e-5
0.512, 2.111e-5
0.513, 2.122e-5
0.514, 2.131e-5
0.515, 2.141e-5
0.516, 2.150e-5
0.517, 2.159e-5
0.518, 2.170e-5
0.519, 2.181e-5
0.520, 2.193e-5
0.521, 2.204e-5
0.522, 2.214e-5
0.523, 2.227e-5
0.524, 2.239e-5
0.525, 2.252e-5
0.526, 2.266e-5
0.527, 2.278e-5
0.528, 2.292e-5
0.529, 2.305e-5
0.530, 2.319e-5
0.531, 2.334e-5
0.532, 2.348e-5
0.533, 2.363e-5
0.534, 2.378e-5
0.535, 2.392e-5
0.536, 2.409e-5
0.537, 2.425e-5
0.538, 2.440e-5
0.539, 2.458e-5
0.540, 2.474e-5
0.541, 2.491e-5
0.542, 2.508e-5
0.543, 2.525e-5
0.544, 2.543e-5
0.545, 2.561e-5
0.546, 2.578e-5
0.547, 2.598e-5
0.548, 2.616e-5
0.549, 2.635e-5
0.550, 2.654e-5
0.551, 2.675e-5
0.552, 2.694e-5
0.553, 2.714e-5
0.554, 2.733e-5
0.555, 2.755e-5
0.556, 2.774e-5
0.557, 2.795e-5
0.558, 2.818e-5
0.559, 2.838e-5
0.560, 2.860e-5
0.561, 2.883e-5
0.562, 2.903e-5
0.563, 2.926e-5
0.564, 2.951e-5
0.565, 2.973e-5
0.566, 2.995e-5
0.567, 3.017e-5
0.568, 3.040e-5
0.569, 3.063e-5
0.570, 3.086e-5
0.571, 3.110e-5
0.572, 3.132e-5
0.573, 3.155e-5
0.574, 3.178e-5
0.575, 3.201e-5
0.576, 3.226e-5
0.577, 3.249e-5
0.578, 3.272e-5
0.579, 3.296e-5
0.580, 3.319e-5
0.581, 3.340e-5
0.582, 3.364e-5
0.583, 3.387e-5
0.584, 3.411e-5
0.585, 3.433e-5
0.586, 3.456e-5
0.587, 3.478e-5
0.588, 3.500e-5
0.589, 3.523e-5
0.590, 3.546e-5
0.591, 3.567e-5
0.592, 3.591e-5
0.593, 3.613e-5
0.594, 3.635e-5
0.595, 3.659e-5
0.596, 3.681e-5
0.597, 3.703e-5
0.598, 3.726e-5
0.599, 3.748e-5
0.600, 3.770e-5
0.601, 3.791e-5
0.602, 3.813e-5
0.603, 3.836e-5
0.604, 3.857e-5
0.605, 3.879e-5
0.606, 3.902e-5
0.607, 3.922e-5
0.608, 3.945e-5
0.609, 3.967e-5
0.610, 3.988e-5
0.611, 4.011e-5
0.612, 4.033e-5
0.613, 4.055e-5
0.614, 4.078e-5
0.615, 4.103e-5
0.616, 4.126e-5
0.617, 4.148e-5
0.618, 4.169e-5
0.619, 4.193e-5
0.620, 4.215e-5
0.621, 4.239e-5
0.622, 4.264e-5
0.623, 4.287e-5
0.624, 4.311e-5
0.625, 4.334e-5
0.626, 4.358e-5
0.627, 4.383e-5
0.628, 4.410e-5
0.629, 4.434e-5
0.630, 4.460e-5
0.631, 4.485e-5
0.632, 4.511e-5
0.633, 4.538e-5
0.634, 4.566e-5
0.635, 4.595e-5
0.636, 4.623e-5
0.637, 4.652e-5
0.638, 4.682e-5
0.639, 4.710e-5
0.640, 4.742e-5
0.641, 4.774e-5
0.642, 4.805e-5
0.643, 4.838e-5
0.644, 4.870e-5
0.645, 4.905e-5
0.646, 4.941e-5
0.647, 4.978e-5
0.648, 5.015e-5
0.649, 5.053e-5
0.650, 5.090e-5
0.651, 5.129e-5
0.652, 5.169e-5
0.653, 5.212e-5
0.654, 5.254e-5
0.655, 5.297e-5
0.656, 5.343e-5
0.657, 5.388e-5
0.658, 5.435e-5
0.659, 5.485e-5
0.660, 5.535e-5
0.661, 5.586e-5
0.662, 5.638e-5
0.663, 5.693e-5
0.664, 5.750e-5
0.665, 5.808e-5
0.666, 5.868e-5
0.667, 5.930e-5
0.668, 5.991e-5
0.669, 6.054e-5
0.670, 6.120e-5
0.671, 6.186e-5
0.672, 6.258e-5
0.673, 6.330e-5
0.674, 6.402e-5
0.675, 6.477e-5
0.676, 6.555e-5
0.677, 6.633e-5
0.678, 6.714e-5
0.679, 6.799e-5
0.680, 6.884e-5
0.681, 6.972e-5
0.682, 7.064e-5
0.683, 7.158e-5
0.684, 7.252e-5
0.685, 7.351e-5
0.686, 7.453e-5
0.687, 7.555e-5
0.688, 7.661e-5
0.689, 7.771e-5
0.690, 7.882e-5
0.691, 7.997e-5
0.692, 8.115e-5
0.693, 8.234e-5
0.694, 8.357e-5
0.695, 8.483e-5
0.696, 8.614e-5
0.697, 8.746e-5
0.698, 8.881e-5
0.699, 9.021e-5
0.700, 9.162e-5
0.701, 9.308e-5
0.702, 9.459e-5
0.703, 9.610e-5
0.704, 9.766e-5
0.705, 9.925e-5
0.706, 1.009e-4
0.707, 1.025e-4
0.708, 1.042e-4
0.709, 1.060e-4
0.710, 1.077e-4
0.711, 1.095e-4
0.712, 1.114e-4
0.713, 1.132e-4
0.714, 1.151e-4
0.715, 1.171e-4
0.716, 1.191e-4
0.717, 1.211e-4
0.718, 1.232e-4
0.719, 1.253e-4
0.720, 1.274e-4
0.721, 1.296e-4
0.722, 1.318e-4
0.723, 1.340e-4
0.724, 1.363e-4
0.725, 1.387e-4
0.726, 1.410e-4
0.727, 1.434e-4
0.728, 1.458e-4
0.729, 1.483e-4
0.730, 1.508e-4
0.731, 1.534e-4
0.732, 1.560e-4
0.733, 1.586e-4
0.734, 1.613e-4
0.735, 1.640e-4
0.736, 1.668e-4
0.737, 1.696e-4
0.738, 1.724e-4
0.739, 1.753e-4
0.740, 1.782e-4
0.741, 1.811e-4
0.742, 1.840e-4
0.743, 1.870e-4
0.744, 1.901e-4
0.745, 1.932e-4
0.746, 1.963e-4
0.747, 1.994e-4
0.748, 2.026e-4
0.749, 2.058e-4
0.750, 2.091e-4
0.751, 2.124e-4
0.752, 2.157e-4
0.753, 2.191e-4
0.754, 2.225e-4
0.755, 2.259e-4
0.756, 2.294e-4
0.757, 2.329e-4
0.758, 2.365e-4
0.759, 2.400e-4
0.760, 2.436e-4
0.761, 2.473e-4
0.762, 2.509e-4
0.763, 2.547e-4
0.764, 2.584e-4
0.765, 2.622e-4
0.766, 2.660e-4
0.767, 2.698e-4
0.768, 2.737e-4
0.769, 2.776e-4
0.770, 2.815e-4
0.771, 2.855e-4
0.772, 2.895e-4
0.773, 2.935e-4
0.774, 2.975e-4
0.775, 3.016e-4
0.776, 3.057e-4
0.777, 3.099e-4
0.778, 3.140e-4
0.779, 3.182e-4
0.780, 3.223e-4
0.781, 3.266e-4
0.782, 3.309e-4
0.783, 3.351e-4
0.784, 3.394e-4
0.785, 3.438e-4
0.786, 3.482e-4
0.787, 3.526e-4
0.788, 3.570e-4
0.789, 3.615e-4
0.790, 3.659e-4
0.791, 3.704e-4
0.792, 3.749e-4
0.793, 3.795e-4
0.794, 3.840e-4
0.795, 3.886e-4
0.796, 3.933e-4
0.797, 3.979e-4
0.798, 4.026e-4
0.799, 4.072e-4
0.800, 4.111e-4
0.799, 4.087e-4
0.798, 4.025e-4
0.797, 3.961e-4
0.796, 3.899e-4
0.795, 3.838e-4
0.794, 3.778e-4
0.793, 3.719e-4
0.792, 3.661e-4
0.791, 3.603e-4
0.790, 3.546e-4
0.789, 3.490e-4
0.788, 3.434e-4
0.787, 3.379e-4
0.786, 3.324e-4
0.785, 3.270e-4
0.784, 3.217e-4
0.783, 3.164e-4
0.782, 3.111e-4
0.781, 3.059e-4
0.780, 3.008e-4
0.779, 2.957e-4
0.778, 2.906e-4
0.777, 2.856e-4
0.776, 2.806e-4
0.775, 2.757e-4
0.774, 2.709e-4
0.773, 2.661e-4
0.772, 2.613e-4
0.771, 2.566e-4
0.770, 2.519e-4
0.769, 2.473e-4
0.768, 2.427e-4
0.767, 2.381e-4
0.766, 2.337e-4
0.765, 2.292e-4
0.764, 2.249e-4
0.763, 2.205e-4
0.762, 2.162e-4
0.761, 2.120e-4
0.760, 2.078e-4
0.759, 2.037e-4
0.758, 1.996e-4
0.757, 1.955e-4
0.756, 1.915e-4
0.755, 1.875e-4
0.754, 1.836e-4
0.753, 1.797e-4
0.752, 1.758e-4
0.751, 1.721e-4
0.750, 1.683e-4
0.749, 1.646e-4
0.748, 1.610e-4
0.747, 1.574e-4
0.746, 1.538e-4
0.745, 1.503e-4
0.744, 1.468e-4
0.743, 1.434e-4
0.742, 1.400e-4
0.741, 1.367e-4
0.740, 1.334e-4
0.739, 1.302e-4
0.738, 1.270e-4
0.737, 1.239e-4
0.736, 1.208e-4
0.735, 1.177e-4
0.734, 1.147e-4
0.733, 1.117e-4
0.732, 1.088e-4
0.731, 1.060e-4
0.730, 1.031e-4
0.729, 1.003e-4
0.728, 9.760e-5
0.727, 9.492e-5
0.726, 9.227e-5
0.725, 8.967e-5
0.724, 8.712e-5
0.723, 8.460e-5
0.722, 8.213e-5
0.721, 7.971e-5
0.720, 7.733e-5
0.719, 7.499e-5
0.718, 7.270e-5
0.717, 7.043e-5
0.716, 6.817e-5
0.715, 6.601e-5
0.714, 6.390e-5
0.713, 6.182e-5
0.712, 5.977e-5
0.711, 5.777e-5
0.710, 5.581e-5
0.709, 5.388e-5
0.708, 5.200e-5
0.707, 5.015e-5
0.706, 4.836e-5
0.705, 4.660e-5
0.704, 4.486e-5
0.703, 4.317e-5
0.702, 4.153e-5
0.701, 3.992e-5
0.700, 3.835e-5
0.699, 3.681e-5
0.698, 3.531e-5
0.697, 3.384e-5
0.696, 3.240e-5
0.695, 3.100e-5
0.694, 2.964e-5
0.693, 2.831e-5
0.692, 2.702e-5
0.691, 2.574e-5
0.690, 2.449e-5
0.689, 2.330e-5
0.688, 2.211e-5
0.687, 2.096e-5
0.686, 1.986e-5
0.685, 1.876e-5
0.684, 1.769e-5
0.683, 1.666e-5
0.682, 1.566e-5
0.681, 1.468e-5
0.680, 1.371e-5
0.679, 1.278e-5
0.678, 1.186e-5
0.677, 1.096e-5
0.676, 1.011e-5
0.675, 9.267e-6
0.674, 8.449e-6
0.673, 7.665e-6
0.672, 6.877e-6
0.671, 6.130e-6
0.670, 5.410e-6
0.669, 4.693e-6
0.668, 4.009e-6
0.667, 3.340e-6
0.666, 2.685e-6
0.665, 2.031e-6
0.664, 1.401e-6
0.663, 8.058e-7
0.662, 2.263e-7
0.661, -3.551e-7
0.660, -9.100e-7
0.659, -1.459e-6
0.658, -1.987e-6
0.657, -2.483e-6
0.656, -2.984e-6
0.655, -3.468e-6
0.654, -3.938e-6
0.653, -4.405e-6
0.652, -4.859e-6
0.651, -5.294e-6
0.650, -5.716e-6
0.649, -6.121e-6
0.648, -6.526e-6
0.647, -6.910e-6
0.646, -7.301e-6
0.645, -7.682e-6
0.644, -8.030e-6
0.643, -8.386e-6
0.642, -8.738e-6
0.641, -9.066e-6
0.640, -9.403e-6
0.639, -9.711e-6
0.638, -1.001e-5
0.637, -1.032e-5
0.636, -1.060e-5
0.635, -1.089e-5
0.634, -1.118e-5
0.633, -1.145e-5
0.632, -1.173e-5
0.631, -1.198e-5
0.630, -1.223e-5
0.629, -1.248e-5
0.628, -1.271e-5
0.627, -1.295e-5
0.626, -1.319e-5
0.625, -1.341e-5
0.624, -1.364e-5
0.623, -1.384e-5
0.622, -1.405e-5
0.621, -1.426e-5
0.620, -1.445e-5
0.619, -1.464e-5
0.618, -1.483e-5
0.617, -1.501e-5
0.616, -1.519e-5
0.615, -1.536e-5
0.614, -1.556e-5
0.613, -1.574e-5
0.612, -1.589e-5
0.611, -1.604e-5
0.610, -1.620e-5
0.609, -1.634e-5
0.608, -1.649e-5
0.607, -1.663e-5
0.606, -1.676e-5
0.605, -1.691e-5
0.604, -1.703e-5
0.603, -1.715e-5
0.602, -1.727e-5
0.601, -1.740e-5
0.600, -1.752e-5
0.599, -1.762e-5
0.598, -1.772e-5
0.597, -1.783e-5
0.596, -1.792e-5
0.595, -1.802e-5
0.594, -1.811e-5
0.593, -1.819e-5
0.592, -1.829e-5
0.591, -1.837e-5
0.590, -1.844e-5
0.589, -1.852e-5
0.588, -1.858e-5
0.587, -1.865e-5
0.586, -1.871e-5
0.585, -1.877e-5
0.584, -1.883e-5
0.583, -1.888e-5
0.582, -1.893e-5
0.581, -1.899e-5
0.580, -1.901e-5
0.579, -1.905e-5
0.578, -1.907e-5
0.577, -1.910e-5
0.576, -1.914e-5
0.575, -1.916e-5
0.574, -1.917e-5
0.573, -1.919e-5
0.572, -1.920e-5
0.571, -1.922e-5
0.570, -1.923e-5
0.569, -1.923e-5
0.568, -1.923e-5
0.567, -1.923e-5
0.566, -1.921e-5
0.565, -1.922e-5
0.564, -1.920e-5
0.563, -1.920e-5
0.562, -1.919e-5
0.561, -1.915e-5
0.560, -1.913e-5
0.559, -1.910e-5
0.558, -1.906e-5
0.557, -1.903e-5
0.556, -1.899e-5
0.555, -1.896e-5
0.554, -1.892e-5
0.553, -1.887e-5
0.552, -1.884e-5
0.551, -1.878e-5
0.550, -1.874e-5
0.549, -1.871e-5
0.548, -1.865e-5
0.547, -1.860e-5
0.546, -1.854e-5
0.545, -1.848e-5
0.544, -1.843e-5
0.543, -1.838e-5
0.542, -1.832e-5
0.541, -1.827e-5
0.540, -1.820e-5
0.539, -1.815e-5
0.538, -1.809e-5
0.537, -1.802e-5
0.536, -1.797e-5
0.535, -1.790e-5
0.534, -1.784e-5
0.533, -1.778e-5
0.532, -1.770e-5
0.531, -1.764e-5
0.530, -1.758e-5
0.529, -1.750e-5
0.528, -1.744e-5
0.527, -1.736e-5
0.526, -1.729e-5
0.525, -1.723e-5
0.524, -1.717e-5
0.523, -1.710e-5
0.522, -1.703e-5
0.521, -1.695e-5
0.520, -1.689e-5
0.519, -1.682e-5
0.518, -1.675e-5
0.517, -1.669e-5
0.516, -1.661e-5
0.515, -1.655e-5
0.514, -1.648e-5
0.513, -1.641e-5
0.512, -1.637e-5
0.511, -1.633e-5
0.510, -1.625e-5
0.509, -1.619e-5
0.508, -1.611e-5
0.507, -1.604e-5
0.506, -1.598e-5
0.505, -1.592e-5
0.504, -1.587e-5
0.503, -1.580e-5
0.502, -1.573e-5
0.501, -1.567e-5
0.500, -1.561e-5
0.499, -1.556e-5
0.498, -1.551e-5
0.497, -1.544e-5
0.496, -1.539e-5
0.495, -1.532e-5
0.494, -1.526e-5
0.493, -1.521e-5
0.492, -1.516e-5
0.491, -1.510e-5
0.490, -1.505e-5
0.489, -1.499e-5
0.488, -1.495e-5
0.487, -1.489e-5
0.486, -1.484e-5
0.485, -1.480e-5
0.484, -1.475e-5
0.483, -1.470e-5
0.482, -1.466e-5
0.481, -1.460e-5
0.480, -1.457e-5
0.479, -1.453e-5
0.478, -1.448e-5
0.477, -1.444e-5
0.476, -1.439e-5
0.475, -1.436e-5
0.474, -1.431e-5
0.473, -1.428e-5
0.472, -1.425e-5
0.471, -1.420e-5
0.470, -1.416e-5
0.469, -1.413e-5
0.468, -1.409e-5
0.467, -1.406e-5
0.466, -1.403e-5
0.465, -1.400e-5
0.464, -1.397e-5
0.463, -1.393e-5
0.462, -1.390e-5
0.461, -1.388e-5
0.460, -1.387e-5
0.459, -1.384e-5
0.458, -1.380e-5
0.457, -1.377e-5
0.456, -1.375e-5
0.455, -1.373e-5
0.454, -1.371e-5
0.453, -1.369e-5
0.452, -1.366e-5
0.451, -1.364e-5
0.450, -1.362e-5
0.449, -1.359e-5
0.448, -1.359e-5
0.447, -1.358e-5
0.446, -1.356e-5
0.445, -1.354e-5
0.444, -1.351e-5
0.443, -1.350e-5
0.442, -1.349e-5
0.441, -1.347e-5
0.440, -1.346e-5
0.439, -1.345e-5
0.438, -1.343e-5
0.437, -1.343e-5
0.436, -1.341e-5
0.435, -1.341e-5
0.434, -1.340e-5
0.433, -1.339e-5
0.432, -1.339e-5
0.431, -1.337e-5
0.430, -1.337e-5
0.429, -1.337e-5
0.428, -1.336e-5
0.427, -1.335e-5
0.426, -1.334e-5
0.425, -1.334e-5
0.424, -1.334e-5
0.423, -1.334e-5
0.422, -1.334e-5
0.421, -1.335e-5
0.420, -1.334e-5
0.419, -1.335e-5
0.418, -1.336e-5
0.417, -1.335e-5
0.416, -1.335e-5
0.415, -1.336e-5
0.414, -1.335e-5
0.413, -1.336e-5
0.412, -1.335e-5
0.411, -1.336e-5
0.410, -1.337e-5
0.409, -1.337e-5
0.408, -1.338e-5
0.407, -1.338e-5
0.406, -1.338e-5
0.405, -1.340e-5
0.404, -1.340e-5
0.403, -1.341e-5
0.402, -1.343e-5
0.401, -1.343e-5
0.400, -1.345e-5
0.399, -1.346e-5
0.398, -1.347e-5
0.397, -1.349e-5
0.396, -1.351e-5
0.395, -1.353e-5
0.394, -1.354e-5
0.393, -1.356e-5
0.392, -1.358e-5
0.391, -1.360e-5
0.390, -1.363e-5
0.389, -1.366e-5
0.388, -1.368e-5
0.387, -1.371e-5
0.386, -1.373e-5
0.385, -1.375e-5
0.384, -1.379e-5
0.383, -1.382e-5
0.382, -1.384e-5
0.381, -1.386e-5
0.380, -1.390e-5
0.379, -1.393e-5
0.378, -1.396e-5
0.377, -1.400e-5
0.376, -1.405e-5
0.375, -1.408e-5
0.374, -1.412e-5
0.373, -1.418e-5
0.372, -1.422e-5
0.371, -1.426e-5
0.370, -1.430e-5
0.369, -1.432e-5
0.368, -1.437e-5
0.367, -1.441e-5
0.366, -1.445e-5
0.365, -1.451e-5
0.364, -1.455e-5
0.363, -1.460e-5
0.362, -1.466e-5
0.361, -1.471e-5
0.360, -1.477e-5
0.359, -1.482e-5
0.358, -1.490e-5
0.357, -1.497e-5
0.356, -1.501e-5
0.355, -1.507e-5
0.354, -1.513e-5
0.353, -1.519e-5
0.352, -1.526e-5
0.351, -1.533e-5
0.350, -1.540e-5
0.349, -1.548e-5
0.348, -1.554e-5
0.347, -1.562e-5
0.346, -1.570e-5
0.345, -1.578e-5
0.344, -1.587e-5
0.343, -1.594e-5
0.342, -1.603e-5
0.341, -1.612e-5
0.340, -1.620e-5
0.339, -1.630e-5
0.338, -1.640e-5
0.337, -1.649e-5
0.336, -1.658e-5
0.335, -1.668e-5
0.334, -1.677e-5
0.333, -1.688e-5
0.332, -1.698e-5
0.331, -1.709e-5
0.330, -1.720e-5
0.329, -1.729e-5
0.328, -1.741e-5
0.327, -1.752e-5
0.326, -1.763e-5
0.325, -1.776e-5
0.324, -1.787e-5
0.323, -1.799e-5
0.322, -1.812e-5
0.321, -1.824e-5
0.320, -1.838e-5
0.319, -1.851e-5
0.318, -1.865e-5
0.317, -1.879e-5
0.316, -1.892e-5
0.315, -1.907e-5
0.314, -1.922e-5
0.313, -1.937e-5
0.312, -1.952e-5
0.311, -1.967e-5
0.310, -1.983e-5
0.309, -1.999e-5
0.308, -2.015e-5
0.307, -2.035e-5
0.306, -2.054e-5
0.305, -2.069e-5
0.304, -2.087e-5
0.303, -2.106e-5
0.302, -2.124e-5
0.301, -2.143e-5
0.300, -2.161e-5
0.299, -2.181e-5
0.298, -2.200e-5
0.297, -2.219e-5
0.296, -2.239e-5
0.295, -2.258e-5
0.294, -2.280e-5
0.293, -2.302e-5
0.292, -2.323e-5
0.291, -2.345e-5
0.290, -2.368e-5
0.289, -2.390e-5
0.288, -2.413e-5
0.287, -2.437e-5
0.286, -2.461e-5
0.285, -2.486e-5
0.284, -2.510e-5
0.283, -2.535e-5
0.282, -2.562e-5
0.281, -2.588e-5
0.280, -2.615e-5
0.279, -2.642e-5
0.278, -2.670e-5
0.277, -2.699e-5
0.276, -2.727e-5
0.275, -2.757e-5
0.274, -2.788e-5
0.273, -2.816e-5
0.272, -2.849e-5
0.271, -2.881e-5
0.270, -2.912e-5
0.269, -2.946e-5
0.268, -2.979e-5
0.267, -3.013e-5
0.266, -3.048e-5
0.265, -3.082e-5
0.264, -3.119e-5
0.263, -3.155e-5
0.262, -3.193e-5
0.261, -3.232e-5
0.260, -3.269e-5
0.259, -3.308e-5
0.258, -3.348e-5
0.257, -3.388e-5
0.256, -3.431e-5
0.255, -3.475e-5
0.254, -3.517e-5
0.253, -3.561e-5
0.252, -3.604e-5
0.251, -3.649e-5
0.250, -3.695e-5
0.249, -3.741e-5
0.248, -3.788e-5
0.247, -3.835e-5
0.246, -3.883e-5
0.245, -3.932e-5
0.244, -3.981e-5
0.243, -4.034e-5
0.242, -4.087e-5
0.241, -4.139e-5
0.240, -4.191e-5
0.239, -4.245e-5
0.238, -4.299e-5
0.237, -4.354e-5
0.236, -4.407e-5
0.235, -4.463e-5
0.234, -4.520e-5
0.233, -4.576e-5
0.232, -4.633e-5
0.231, -4.690e-5
0.230, -4.747e-5
0.229, -4.805e-5
0.228, -4.862e-5
0.227, -4.920e-5
0.226, -4.976e-5
0.225, -5.033e-5
0.224, -5.089e-5
0.223, -5.144e-5
0.222, -5.197e-5
0.221, -5.250e-5
0.220, -5.301e-5
0.219, -5.352e-5
0.218, -5.400e-5
0.217, -5.448e-5
0.216, -5.493e-5
0.215, -5.534e-5
0.214, -5.573e-5
0.213, -5.609e-5
0.212, -5.640e-5
0.211, -5.668e-5
0.210, -5.691e-5
0.209, -5.707e-5
0.208, -5.720e-5
0.207, -5.726e-5
0.206, -5.725e-5
0.205, -5.717e-5
0.204, -5.702e-5
0.203, -5.677e-5
0.202, -5.643e-5
0.201, -5.599e-5
0.200, -5.545e-5
0.199, -5.482e-5
0.198, -5.407e-5
0.197, -5.323e-5
0.196, -5.229e-5
0.195, -5.125e-5
0.194, -5.013e-5
0.193, -4.892e-5
0.192, -4.766e-5
0.191, -4.634e-5
0.190, -4.500e-5
0.189, -4.365e-5
0.188, -4.230e-5
0.187, -4.097e-5
0.186, -3.966e-5
0.185, -3.838e-5
0.184, -3.716e-5
0.183, -3.597e-5
0.182, -3.483e-5
0.181, -3.376e-5
0.180, -3.272e-5
0.179, -3.174e-5
0.178, -3.082e-5
0.177, -2.993e-5
0.176, -2.910e-5
0.175, -2.831e-5
0.174, -2.756e-5
0.173, -2.685e-5
0.172, -2.617e-5
0.171, -2.552e-5
0.170, -2.490e-5
0.169, -2.431e-5
0.168, -2.375e-5
0.167, -2.321e-5
0.166, -2.271e-5
0.165, -2.222e-5
0.164, -2.175e-5
0.163, -2.130e-5
0.162, -2.087e-5
0.161, -2.046e-5
0.160, -2.006e-5
0.159, -1.968e-5
0.158, -1.931e-5
0.157, -1.896e-5
0.156, -1.862e-5
0.155, -1.830e-5
0.154, -1.799e-5
0.153, -1.769e-5
0.152, -1.740e-5
0.151, -1.711e-5
0.150, -1.684e-5
0.149, -1.657e-5
0.148, -1.632e-5
0.147, -1.607e-5
0.146, -1.584e-5
0.145, -1.560e-5
0.144, -1.537e-5
0.143, -1.515e-5
0.142, -1.494e-5
0.141, -1.474e-5
0.140, -1.454e-5
0.139, -1.436e-5
0.138, -1.417e-5
0.137, -1.399e-5
0.136, -1.381e-5
0.135, -1.364e-5
0.134, -1.348e-5
0.133, -1.332e-5
0.132, -1.316e-5
0.131, -1.300e-5
0.130, -1.285e-5
0.129, -1.270e-5
0.128, -1.255e-5
0.127, -1.242e-5
0.126, -1.228e-5
0.125, -1.216e-5
0.124, -1.203e-5
0.123, -1.190e-5
0.122, -1.177e-5
0.121, -1.165e-5
0.120, -1.153e-5
0.119, -1.142e-5
0.118, -1.130e-5
0.117, -1.119e-5
0.116, -1.108e-5
0.115, -1.097e-5
0.114, -1.087e-5
0.113, -1.077e-5
0.112, -1.067e-5
0.111, -1.057e-5
0.110, -1.048e-5
0.109, -1.039e-5
0.108, -1.030e-5
0.107, -1.021e-5
0.106, -1.012e-5
0.105, -1.003e-5
0.104, -9.948e-6
0.103, -9.863e-6
0.102, -9.781e-6
0.101, -9.699e-6
0.100, -9.622e-6
0.099, -9.544e-6
0.098, -9.465e-6
0.097, -9.390e-6
0.096, -9.322e-6
0.095, -9.252e-6
0.094, -9.179e-6
0.093, -9.110e-6
0.092, -9.041e-6
0.091, -8.972e-6
0.090, -8.908e-6
0.089, -8.842e-6
0.088, -8.774e-6
0.087, -8.707e-6
0.086, -8.645e-6
0.085, -8.584e-6
0.084, -8.521e-6
0.083, -8.461e-6
0.082, -8.400e-6
0.081, -8.342e-6
0.080, -8.287e-6
0.079, -8.232e-6
0.078, -8.171e-6
0.077, -8.115e-6
0.076, -8.066e-6
0.075, -8.013e-6
0.074, -7.956e-6
0.073, -7.903e-6
0.072, -7.854e-6
0.071, -7.804e-6
0.070, -7.754e-6
0.069, -7.709e-6
0.068, -7.662e-6
0.067, -7.616e-6
0.066, -7.569e-6
0.065, -7.520e-6
0.064, -7.473e-6
0.063, -7.430e-6
0.062, -7.385e-6
0.061, -7.343e-6
0.060, -7.301e-6
0.059, -7.259e-6
0.058, -7.219e-6
0.057, -7.177e-6
0.056, -7.137e-6
0.055, -7.099e-6
0.054, -7.058e-6
0.053, -7.019e-6
0.052, -6.984e-6
0.051, -6.946e-6
0.050, -6.909e-6
0.049, -6.873e-6
0.048, -6.837e-6
0.047, -6.799e-6
0.046, -6.760e-6
0.045, -6.726e-6
0.044, -6.692e-6
0.043, -6.656e-6
0.042, -6.620e-6
0.041, -6.582e-6
0.040, -6.551e-6
0.039, -6.521e-6
0.038, -6.489e-6
0.037, -6.457e-6
0.036, -6.427e-6
0.035, -6.396e-6
0.034, -6.362e-6
0.033, -6.331e-6
0.032, -6.301e-6
0.031, -6.271e-6
0.030, -6.239e-6
0.029, -6.209e-6
0.028, -6.179e-6
0.027, -6.151e-6
0.026, -6.123e-6
0.025, -6.096e-6
0.024, -6.066e-6
0.023, -6.040e-6
0.022, -6.013e-6
0.021, -5.986e-6
0.020, -5.958e-6
0.019, -5.934e-6
0.018, -5.908e-6
0.017, -5.882e-6
0.016, -5.858e-6
0.015, -5.830e-6
0.014, -5.801e-6
0.013, -5.775e-6
0.012, -5.751e-6
0.011, -5.724e-6
0.010, -5.699e-6
0.009, -5.676e-6
0.008, -5.652e-6
0.007, -5.627e-6
0.006, -5.603e-6
0.005, -5.581e-6
0.004, -5.559e-6
0.003, -5.539e-6
0.002, -5.517e-6
0.001, -5.494e-6
0.000, -5.412e-6
0.001, -5.167e-6
0.002, -5.029e-6
0.003, -4.943e-6
0.004, -4.865e-6
0.005, -4.793e-6
0.006, -4.730e-6
0.007, -4.666e-6
0.008, -4.606e-6
0.009, -4.549e-6
0.010, -4.491e-6
0.011, -4.437e-6
0.012, -4.385e-6
0.013, -4.333e-6
0.014, -4.285e-6
0.015, -4.241e-6
0.016, -4.195e-6
0.017, -4.150e-6
0.018, -4.106e-6
0.019, -4.062e-6
0.020, -4.018e-6
0.021, -3.979e-6
0.022, -3.936e-6
0.023, -3.896e-6
0.024, -3.858e-6
0.025, -3.821e-6
0.026, -3.782e-6
0.027, -3.744e-6
0.028, -3.707e-6
0.029, -3.670e-6
0.030, -3.634e-6
0.031, -3.601e-6
0.032, -3.567e-6
0.033, -3.533e-6
0.034, -3.500e-6
0.035, -3.466e-6
0.036, -3.434e-6
0.037, -3.403e-6
0.038, -3.370e-6
0.039, -3.340e-6
0.040, -3.310e-6
0.041, -3.279e-6
0.042, -3.248e-6
0.043, -3.217e-6
0.044, -3.186e-6
0.045, -3.157e-6
0.046, -3.125e-6
0.047, -3.097e-6
0.048, -3.068e-6
0.049, -3.040e-6
0.050, -3.012e-6
0.051, -2.983e-6
0.052, -2.955e-6
0.053, -2.929e-6
0.054, -2.902e-6
0.055, -2.876e-6
0.056, -2.849e-6
0.057, -2.821e-6
0.058, -2.794e-6
0.059, -2.769e-6
0.060, -2.743e-6
0.061, -2.719e-6
0.062, -2.694e-6
0.063, -2.669e-6
0.064, -2.645e-6
0.065, -2.621e-6
0.066, -2.598e-6
0.067, -2.574e-6
0.068, -2.552e-6
0.069, -2.528e-6
0.070, -2.504e-6
0.071, -2.479e-6
0.072, -2.456e-6
0.073, -2.432e-6
0.074, -2.410e-6
0.075, -2.386e-6
0.076, -2.363e-6
0.077, -2.341e-6
0.078, -2.318e-6
0.079, -2.296e-6
0.080, -2.273e-6
0.081, -2.252e-6
0.082, -2.230e-6
0.083, -2.204e-6
0.084, -2.182e-6
0.085, -2.161e-6
0.086, -2.138e-6
0.087, -2.117e-6
0.088, -2.095e-6
0.089, -2.073e-6
0.090, -2.050e-6
0.091, -2.028e-6
0.092, -2.006e-6
0.093, -1.985e-6
0.094, -1.963e-6
0.095, -1.941e-6
0.096, -1.921e-6
0.097, -1.900e-6
0.098, -1.880e-6
0.099, -1.857e-6
0.100, -1.836e-6
0.101, -1.815e-6
0.102, -1.793e-6
0.103, -1.771e-6
0.104, -1.751e-6
0.105, -1.729e-6
0.106, -1.709e-6
0.107, -1.687e-6
0.108, -1.668e-6
0.109, -1.649e-6
0.110, -1.629e-6
0.111, -1.608e-6
0.112, -1.587e-6
0.113, -1.566e-6
0.114, -1.548e-6
0.115, -1.526e-6
0.116, -1.502e-6
0.117, -1.480e-6
0.118, -1.459e-6
0.119, -1.439e-6
0.120, -1.418e-6
0.121, -1.397e-6
0.122, -1.375e-6
0.123, -1.352e-6
0.124, -1.332e-6
0.125, -1.310e-6
0.126, -1.288e-6
0.127, -1.267e-6
0.128, -1.245e-6
0.129, -1.223e-6
0.130, -1.202e-6
0.131, -1.182e-6
0.132, -1.162e-6
0.133, -1.141e-6
0.134, -1.119e-6
0.135, -1.096e-6
0.136, -1.073e-6
0.137, -1.051e-6
0.138, -1.032e-6
0.139, -1.010e-6
0.140, -9.873e-7
0.141, -9.643e-7
0.142, -9.415e-7
0.143, -9.187e-7
0.144, -8.954e-7
0.145, -8.706e-7
0.146, -8.469e-7
0.147, -8.229e-7
0.148, -7.970e-7
0.149, -7.745e-7
0.150, -7.499e-7
0.151, -7.239e-7
0.152, -7.007e-7
0.153, -6.741e-7
0.154, -6.458e-7
0.155, -6.177e-7
0.156, -5.908e-7
0.157, -5.628e-7
0.158, -5.346e-7
0.159, -5.072e-7
0.160, -4.776e-7
0.161, -4.493e-7
0.162, -4.211e-7
0.163, -3.898e-7
0.164, -3.585e-7
0.165, -3.281e-7
0.166, -2.926e-7
0.167, -2.591e-7
0.168, -2.249e-7
0.169, -1.907e-7
0.170, -1.554e-7
0.171, -1.169e-7
0.172, -7.592e-8
0.173, -3.335e-8
0.174, 7.649e-9
0.175, 5.002e-8
0.176, 9.564e-8
0.177, 1.443e-7
0.178, 1.924e-7
0.179, 2.453e-7
0.180, 2.995e-7
0.181, 3.571e-7
0.182, 4.175e-7
0.183, 4.787e-7
0.184, 5.401e-7
0.185, 6.095e-7
0.186, 6.813e-7
0.187, 7.565e-7
0.188, 8.352e-7
0.189, 9.207e-7
0.190, 1.014e-6
0.191, 1.109e-6
0.192, 1.215e-6
0.193, 1.327e-6
0.194, 1.442e-6
0.195, 1.570e-6
0.196, 1.706e-6
0.197, 1.853e-6
0.198, 2.010e-6
0.199, 2.183e-6
0.200, 2.374e-6
0.201, 2.583e-6
0.202, 2.804e-6
0.203, 3.050e-6
0.204, 3.320e-6
0.205, 3.616e-6
0.206, 3.944e-6
0.207, 4.299e-6
0.208, 4.691e-6
0.209, 5.126e-6
0.210, 5.596e-6
0.211, 6.120e-6
0.212, 6.698e-6
0.213, 7.332e-6
0.214, 8.028e-6
0.215, 8.779e-6
0.216, 9.601e-6
0.217, 1.050e-5
0.218, 1.147e-5
0.219, 1.252e-5
0.220, 1.364e-5
0.221, 1.484e-5
0.222, 1.614e-5
0.223, 1.751e-5
0.224, 1.896e-5
0.225, 2.049e-5
0.226, 2.210e-5
0.227, 2.380e-5
0.228, 2.556e-5
0.229, 2.740e-5
0.230, 2.931e-5
0.231, 3.129e-5
0.232, 3.333e-5
0.233, 3.543e-5
0.234, 3.758e-5
0.235, 3.980e-5
0.236, 4.205e-5
0.237, 4.437e-5
0.238, 4.673e-5
0.239, 4.911e-5
0.240, 5.154e-5
0.241, 5.400e-5
0.242, 5.650e-5
0.243, 5.902e-5
0.244, 6.157e-5
0.245, 6.413e-5
0.246, 6.670e-5
0.247, 6.928e-5
0.248, 7.188e-5
0.249, 7.446e-5
0.250, 7.704e-5
0.251, 7.963e-5
0.252, 8.216e-5
0.253, 8.468e-5
0.254, 8.718e-5
0.255, 8.962e-5
0.256, 9.202e-5
0.257, 9.437e-5
0.258, 9.660e-5
0.259, 9.875e-5
0.260, 1.008e-4
0.261, 1.027e-4
0.262, 1.045e-4
0.263, 1.061e-4
0.264, 1.076e-4
0.265, 1.088e-4
0.266, 1.099e-4
0.267, 1.107e-4
0.268, 1.113e-4
0.269, 1.116e-4
0.270, 1.116e-4
0.271, 1.113e-4
0.272, 1.108e-4
0.273, 1.100e-4
0.274, 1.089e-4
0.275, 1.076e-4
0.276, 1.060e-4
0.277, 1.043e-4
0.278, 1.023e-4
0.279, 1.002e-4
0.280, 9.796e-5
0.281, 9.562e-5
0.282, 9.319e-5
0.283, 9.073e-5
0.284, 8.822e-5
0.285, 8.573e-5
0.286, 8.325e-5
0.287, 8.081e-5
0.288, 7.844e-5
0.289, 7.612e-5
0.290, 7.386e-5
0.291, 7.167e-5
0.292, 6.952e-5
0.293, 6.744e-5
0.294, 6.543e-5
0.295, 6.349e-5
0.296, 6.162e-5
0.297, 5.981e-5
0.298, 5.807e-5
0.299, 5.641e-5
0.300, 5.480e-5
0.301, 5.326e-5
0.302, 5.178e-5
0.303, 5.035e-5
0.304, 4.898e-5
0.305, 4.767e-5
0.306, 4.640e-5
0.307, 4.521e-5
0.308, 4.409e-5
0.309, 4.299e-5
0.310, 4.194e-5
0.311, 4.093e-5
0.312, 3.998e-5
0.313, 3.907e-5
0.314, 3.819e-5
0.315, 3.737e-5
0.316, 3.657e-5
0.317, 3.580e-5
0.318, 3.509e-5
0.319, 3.439e-5
0.320, 3.373e-5
0.321, 3.310e-5
0.322, 3.249e-5
0.323, 3.192e-5
0.324, 3.135e-5
0.325, 3.082e-5
0.326, 3.032e-5
0.327, 2.984e-5
0.328, 2.937e-5
0.329, 2.892e-5
0.330, 2.848e-5
0.331, 2.808e-5
0.332, 2.767e-5
0.333, 2.728e-5
0.334, 2.691e-5
0.335, 2.655e-5
0.336, 2.621e-5
0.337, 2.587e-5
0.338, 2.554e-5
0.339, 2.524e-5
0.340, 2.494e-5
0.341, 2.466e-5
0.342, 2.438e-5
0.343, 2.410e-5
0.344, 2.385e-5
0.345, 2.360e-5
0.346, 2.336e-5
0.347, 2.313e-5
0.348, 2.290e-5
0.349, 2.267e-5
0.350, 2.245e-5
0.351, 2.225e-5
0.352, 2.206e-5
0.353, 2.186e-5
0.354, 2.166e-5
0.355, 2.148e-5
0.356, 2.130e-5
0.357, 2.113e-5
0.358, 2.097e-5
0.359, 2.083e-5
0.360, 2.068e-5
0.361, 2.051e-5
0.362, 2.036e-5
0.363, 2.022e-5
0.364, 2.008e-5
0.365, 1.994e-5
0.366, 1.980e-5
0.367, 1.966e-5
0.368, 1.954e-5
0.369, 1.943e-5
0.370, 1.931e-5
0.371, 1.920e-5
0.372, 1.909e-5
0.373, 1.899e-5
0.374, 1.889e-5
0.375, 1.878e-5
0.376, 1.869e-5
0.377, 1.859e-5
0.378, 1.851e-5
0.379, 1.844e-5
0.380, 1.835e-5
0.381, 1.827e-5
0.382, 1.818e-5
0.383, 1.810e-5
0.384, 1.804e-5
0.385, 1.797e-5
0.386, 1.790e-5
0.387, 1.783e-5
0.388, 1.777e-5
0.389, 1.771e-5
0.390, 1.766e-5
0.391, 1.761e-5
0.392, 1.757e-5
0.393, 1.752e-5
0.394, 1.746e-5
0.395, 1.742e-5
0.396, 1.736e-5
0.397, 1.732e-5
0.398, 1.728e-5
0.399, 1.724e-5
0.400, 1.721e-5
0.401, 1.717e-5
0.402, 1.713e-5
0.403, 1.710e-5
0.404, 1.708e-5
0.405, 1.705e-5
0.406, 1.702e-5
0.407, 1.699e-5
0.408, 1.697e-5
0.409, 1.695e-5
0.410, 1.694e-5
0.411, 1.693e-5
0.412, 1.691e-5
0.413, 1.689e-5
0.414, 1.689e-5
0.415, 1.687e-5
0.416, 1.687e-5
0.417, 1.687e-5
0.418, 1.685e-5
0.419, 1.685e-5
0.420, 1.685e-5
0.421, 1.685e-5
0.422, 1.685e-5
0.423, 1.686e-5
0.424, 1.686e-5
0.425, 1.687e-5
0.426, 1.687e-5
0.427, 1.689e-5
0.428, 1.689e-5
0.429, 1.692e-5
0.430, 1.694e-5
0.431, 1.694e-5
0.432, 1.696e-5
0.433, 1.698e-5
0.434, 1.699e-5
0.435, 1.702e-5
0.436, 1.705e-5
0.437, 1.707e-5
0.438, 1.709e-5
0.439, 1.712e-5
0.440, 1.715e-5
0.441, 1.718e-5
0.442, 1.720e-5
0.443, 1.724e-5
0.444, 1.727e-5
0.445, 1.731e-5
0.446, 1.735e-5
0.447, 1.737e-5
0.448, 1.742e-5
0.449, 1.747e-5
0.450, 1.750e-5
0.451, 1.755e-5
0.452, 1.759e-5
0.453, 1.763e-5
0.454, 1.767e-5
0.455, 1.771e-5
0.456, 1.777e-5
0.457, 1.781e-5
0.458, 1.786e-5
0.459, 1.792e-5
0.460, 1.796e-5
0.461, 1.804e-5
0.462, 1.811e-5
0.463, 1.815e-5
0.464, 1.821e-5
0.465, 1.827e-5
0.466, 1.832e-5
0.467, 1.838e-5
0.468, 1.845e-5
0.469, 1.850e-5
0.470, 1.857e-5
0.471, 1.863e-5
0.472, 1.869e-5
0.473, 1.875e-5
0.474, 1.882e-5
0.475, 1.889e-5
0.476, 1.895e-5
0.477, 1.901e-5
0.478, 1.908e-5
0.479, 1.912e-5
0.480, 1.919e-5
0.481, 1.926e-5
0.482, 1.931e-5
0.483, 1.938e-5
0.484, 1.944e-5
0.485, 1.950e-5
0.486, 1.958e-5
0.487, 1.964e-5
0.488, 1.971e-5
0.489, 1.977e-5
0.490, 1.984e-5
0.491, 1.992e-5
0.492, 1.998e-5
0.493, 2.004e-5
0.494, 2.012e-5
0.495, 2.018e-5
0.496, 2.025e-5
0.497, 2.032e-5
0.498, 2.038e-5
0.499, 2.047e-5
0.500, 2.055e-5
0.501, 2.062e-5
0.502, 2.069e-5
0.503, 2.076e-5
0.504, 2.085e-5
0.505, 2.093e-5
0.506, 2.101e-5
0.507, 2.110e-5
0.508, 2.118e-5
0.509, 2.127e-5
0.510, 2.137e-5
0.511, 2.145e-5
0.512, 2.157e-5
0.513, 2.170e-5
0.514, 2.178e-5
0.515, 2.188e-5
0.516, 2.198e-5
0.517, 2.208e-5
0.518, 2.218e-5
0.519, 2.229e-5
0.520, 2.241e-5
0.521, 2.252e-5
0.522, 2.263e-5
0.523, 2.276e-5
0.524, 2.288e-5
0.525, 2.302e-5
0.526, 2.316e-5
0.527, 2.328e-5
0.528, 2.341e-5
0.529, 2.355e-5
0.530, 2.369e-5
0.531, 2.385e-5
0.532, 2.400e-5
0.533, 2.414e-5
0.534, 2.430e-5
0.535, 2.445e-5
0.536, 2.461e-5
0.537, 2.476e-5
0.538, 2.492e-5
0.539, 2.510e-5
0.540, 2.526e-5
0.541, 2.543e-5
0.542, 2.561e-5
0.543, 2.577e-5
0.544, 2.596e-5
0.545, 2.615e-5
0.546, 2.632e-5
0.547, 2.652e-5
0.548, 2.670e-5
0.549, 2.689e-5
0.550, 2.709e-5
0.551, 2.730e-5
0.552, 2.750e-5
0.553, 2.770e-5
0.554, 2.789e-5
0.555, 2.811e-5
0.556, 2.831e-5
0.557, 2.852e-5
0.558, 2.875e-5
0.559, 2.895e-5
0.560, 2.917e-5
0.561, 2.940e-5
0.562, 2.961e-5
0.563, 2.985e-5
0.564, 3.009e-5
0.565, 3.031e-5
0.566, 3.054e-5
0.567, 3.075e-5
0.568, 3.099e-5
0.569, 3.122e-5
0.570, 3.144e-5
0.571, 3.168e-5
0.572, 3.191e-5
0.573, 3.213e-5
0.574, 3.237e-5
0.575, 3.259e-5
0.576, 3.284e-5
0.577, 3.308e-5
0.578, 3.330e-5
0.579, 3.354e-5
0.580, 3.377e-5
0.581, 3.400e-5
0.582, 3.424e-5
0.583, 3.447e-5
0.584, 3.470e-5
0.585, 3.493e-5
0.586, 3.515e-5
0.587, 3.539e-5
0.588, 3.561e-5
0.589, 3.584e-5
0.590, 3.609e-5
0.591, 3.632e-5
0.592, 3.655e-5
0.593, 3.678e-5
0.594, 3.700e-5
0.595, 3.723e-5
0.596, 3.747e-5
0.597, 3.769e-5
0.598, 3.791e-5
0.599, 3.812e-5
0.600, 3.835e-5
0.601, 3.857e-5
0.602, 3.880e-5
0.603, 3.904e-5
0.604, 3.925e-5
0.605, 3.947e-5
0.606, 3.969e-5
0.607, 3.989e-5
0.608, 4.013e-5
0.609, 4.037e-5
0.610, 4.058e-5
0.611, 4.081e-5
0.612, 4.102e-5
0.613, 4.124e-5
0.614, 4.147e-5
0.615, 4.172e-5
0.616, 4.196e-5
0.617, 4.217e-5
0.618, 4.239e-5
0.619, 4.262e-5
0.620, 4.284e-5
0.621, 4.309e-5
0.622, 4.333e-5
0.623, 4.354e-5
0.624, 4.378e-5
0.625, 4.403e-5
0.626, 4.426e-5
0.627, 4.452e-5
0.628, 4.477e-5
0.629, 4.501e-5
0.630, 4.527e-5
0.631, 4.552e-5
0.632, 4.579e-5
0.633, 4.605e-5
0.634, 4.633e-5
0.635, 4.661e-5
0.636, 4.689e-5
0.637, 4.718e-5
0.638, 4.747e-5
0.639, 4.775e-5
0.640, 4.805e-5
0.641, 4.837e-5
0.642, 4.868e-5
0.643, 4.902e-5
0.644, 4.933e-5
0.645, 4.966e-5
0.646, 5.001e-5
0.647, 5.037e-5
0.648, 5.072e-5
0.649, 5.108e-5
0.650, 5.146e-5
0.651, 5.185e-5
0.652, 5.223e-5
0.653, 5.264e-5
0.654, 5.306e-5
0.655, 5.348e-5
0.656, 5.392e-5
0.657, 5.437e-5
0.658, 5.482e-5
0.659, 5.530e-5
0.660, 5.579e-5
0.661, 5.629e-5
0.662, 5.681e-5
0.663, 5.733e-5
0.664, 5.787e-5
0.665, 5.844e-5
0.666, 5.903e-5
0.667, 5.963e-5
0.668, 6.023e-5
0.669, 6.085e-5
0.670, 6.150e-5
0.671, 6.214e-5
0.672, 6.283e-5
0.673, 6.352e-5
0.674, 6.423e-5
0.675, 6.496e-5
0.676, 6.570e-5
0.677, 6.646e-5
0.678, 6.726e-5
0.679, 6.808e-5
0.680, 6.893e-5
0.681, 6.978e-5
0.682, 7.067e-5
0.683, 7.159e-5
0.684, 7.251e-5
0.685, 7.347e-5
0.686, 7.446e-5
0.687, 7.546e-5
0.688, 7.650e-5
0.689, 7.756e-5
0.690, 7.865e-5
0.691, 7.976e-5
0.692, 8.089e-5
0.693, 8.207e-5
0.694, 8.327e-5
0.695, 8.448e-5
0.696, 8.575e-5
0.697, 8.704e-5
0.698, 8.836e-5
0.699, 8.972e-5
0.700, 9.110e-5
0.701, 9.252e-5
0.702, 9.397e-5
0.703, 9.545e-5
0.704, 9.698e-5
0.705, 9.852e-5
0.706, 1.001e-4
0.707, 1.017e-4
0.708, 1.034e-4
0.709, 1.050e-4
0.710, 1.068e-4
0.711, 1.085e-4
0.712, 1.103e-4
0.713, 1.121e-4
0.714, 1.140e-4
0.715, 1.158e-4
0.716, 1.178e-4
0.717, 1.198e-4
0.718, 1.219e-4
0.719, 1.239e-4
0.720, 1.260e-4
0.721, 1.281e-4
0.722, 1.302e-4
0.723, 1.324e-4
0.724, 1.346e-4
0.725, 1.369e-4
0.726, 1.392e-4
0.727, 1.415e-4
0.728, 1.438e-4
0.729, 1.463e-4
0.730, 1.487e-4
0.731, 1.512e-4
0.732, 1.537e-4
0.733, 1.563e-4
0.734, 1.589e-4
0.735, 1.615e-4
0.736, 1.642e-4
0.737, 1.669e-4
0.738, 1.697e-4
0.739, 1.725e-4
0.740, 1.753e-4
0.741, 1.782e-4
0.742, 1.811e-4
0.743, 1.840e-4
0.744, 1.869e-4
0.745, 1.899e-4
0.746, 1.930e-4
0.747, 1.961e-4
0.748, 1.992e-4
0.749, 2.023e-4
0.750, 2.055e-4
0.751, 2.087e-4
0.752, 2.120e-4
0.753, 2.153e-4
0.754, 2.186e-4
0.755, 2.219e-4
0.756, 2.253e-4
0.757, 2.287e-4
0.758, 2.322e-4
0.759, 2.357e-4
0.760, 2.392e-4
0.761, 2.427e-4
0.762, 2.463e-4
0.763, 2.499e-4
0.764, 2.536e-4
0.765, 2.573e-4
0.766, 2.610e-4
0.767, 2.647e-4
0.768, 2.685e-4
0.769, 2.723e-4
0.770, 2.761e-4
0.771, 2.800e-4
0.772, 2.839e-4
0.773, 2.878e-4
0.774, 2.917e-4
0.775, 2.957e-4
0.776, 2.997e-4
0.777, 3.037e-4
0.778, 3.078e-4
0.779, 3.119e-4
0.780, 3.160e-4
0.781, 3.201e-4
0.782, 3.243e-4
0.783, 3.285e-4
0.784, 3.327e-4
0.785, 3.369e-4
0.786, 3.412e-4
0.787, 3.455e-4
0.788, 3.498e-4
0.789, 3.542e-4
0.790, 3.586e-4
0.791, 3.630e-4
0.792, 3.674e-4
0.793, 3.718e-4
0.794, 3.763e-4
0.795, 3.808e-4
0.796, 3.852e-4
0.797, 3.898e-4
0.798, 3.943e-4
0.799, 3.989e-4
0.800, 4.027e-4
0.799, 4.003e-4
0.798, 3.942e-4
0.797, 3.880e-4
0.796, 3.819e-4
0.795, 3.760e-4
0.794, 3.702e-4
0.793, 3.644e-4
0.792, 3.587e-4
0.791, 3.531e-4
0.790, 3.476e-4
0.789, 3.421e-4
0.788, 3.367e-4
0.787, 3.313e-4
0.786, 3.260e-4
0.785, 3.207e-4
0.784, 3.155e-4
0.783, 3.103e-4
0.782, 3.052e-4
0.781, 3.001e-4
0.780, 2.951e-4
0.779, 2.902e-4
0.778, 2.853e-4
0.777, 2.804e-4
0.776, 2.756e-4
0.775, 2.708e-4
0.774, 2.661e-4
0.773, 2.614e-4
0.772, 2.567e-4
0.771, 2.521e-4
0.770, 2.476e-4
0.769, 2.431e-4
0.768, 2.386e-4
0.767, 2.342e-4
0.766, 2.298e-4
0.765, 2.255e-4
0.764, 2.212e-4
0.763, 2.170e-4
0.762, 2.128e-4
0.761, 2.086e-4
0.760, 2.045e-4
0.759, 2.004e-4
0.758, 1.964e-4
0.757, 1.924e-4
0.756, 1.885e-4
0.755, 1.846e-4
0.754, 1.808e-4
0.753, 1.770e-4
0.752, 1.732e-4
0.751, 1.695e-4
0.750, 1.658e-4
0.749, 1.622e-4
0.748, 1.586e-4
0.747, 1.551e-4
0.746, 1.516e-4
0.745, 1.482e-4
0.744, 1.448e-4
0.743, 1.414e-4
0.742, 1.381e-4
0.741, 1.348e-4
0.740, 1.316e-4
0.739, 1.284e-4
0.738, 1.253e-4
0.737, 1.222e-4
0.736, 1.191e-4
0.735, 1.161e-4
0.734, 1.132e-4
0.733, 1.102e-4
0.732, 1.074e-4
0.731, 1.045e-4
0.730, 1.017e-4
0.729, 9.900e-5
0.728, 9.631e-5
0.727, 9.365e-5
0.726, 9.103e-5
0.725, 8.845e-5
0.724, 8.593e-5
0.723, 8.343e-5
0.722, 8.099e-5
0.721, 7.860e-5
0.720, 7.624e-5
0.719, 7.393e-5
0.718, 7.166e-5
0.717, 6.940e-5
0.716, 6.718e-5
0.715, 6.503e-5
0.714, 6.292e-5
0.713, 6.086e-5
0.712, 5.884e-5
0.711, 5.686e-5
0.710, 5.491e-5
0.709, 5.299e-5
0.708, 5.113e-5
0.707, 4.931e-5
0.706, 4.751e-5
0.705, 4.575e-5
0.704, 4.403e-5
0.703, 4.233e-5
0.702, 4.069e-5
0.701, 3.907e-5
0.700, 3.750e-5
0.699, 3.597e-5
0.698, 3.447e-5
0.697, 3.301e-5
0.696, 3.157e-5
0.695, 3.016e-5
0.694, 2.880e-5
0.693, 2.746e-5
0.692, 2.617e-5
0.691, 2.489e-5
0.690, 2.364e-5
0.689, 2.243e-5
0.688, 2.124e-5
0.687, 2.008e-5
0.686, 1.897e-5
0.685, 1.787e-5
0.684, 1.681e-5
0.683, 1.577e-5
0.682, 1.475e-5
0.681, 1.375e-5
0.680, 1.278e-5
0.679, 1.185e-5
0.678, 1.092e-5
0.677, 1.002e-5
0.676, 9.156e-6
0.675, 8.310e-6
0.674, 7.490e-6
0.673, 6.686e-6
0.672, 5.895e-6
0.671, 5.134e-6
0.670, 4.398e-6
0.669, 3.678e-6
0.668, 2.985e-6
0.667, 2.298e-6
0.666, 1.635e-6
0.665, 9.714e-7
0.664, 3.376e-7
0.663, -2.630e-7
0.662, -8.600e-7
0.661, -1.444e-6
0.660, -1.993e-6
0.659, -2.550e-6
0.658, -3.088e-6
0.657, -3.599e-6
0.656, -4.111e-6
0.655, -4.598e-6
0.654, -5.072e-6
0.653, -5.539e-6
0.652, -6.005e-6
0.651, -6.443e-6
0.650, -6.873e-6
0.649, -7.288e-6
0.648, -7.700e-6
0.647, -8.086e-6
0.646, -8.480e-6
0.645, -8.874e-6
0.644, -9.231e-6
0.643, -9.592e-6
0.642, -9.949e-6
0.641, -1.029e-5
0.640, -1.062e-5
0.639, -1.094e-5
0.638, -1.125e-5
0.637, -1.156e-5
0.636, -1.186e-5
0.635, -1.215e-5
0.634, -1.242e-5
0.633, -1.269e-5
0.632, -1.297e-5
0.631, -1.323e-5
0.630, -1.348e-5
0.629, -1.374e-5
0.628, -1.397e-5
0.627, -1.422e-5
0.626, -1.446e-5
0.625, -1.468e-5
0.624, -1.490e-5
0.623, -1.511e-5
0.622, -1.531e-5
0.621, -1.552e-5
0.620, -1.572e-5
0.619, -1.592e-5
0.618, -1.611e-5
0.617, -1.629e-5
0.616, -1.647e-5
0.615, -1.665e-5
0.614, -1.684e-5
0.613, -1.702e-5
0.612, -1.717e-5
0.611, -1.733e-5
0.610, -1.749e-5
0.609, -1.762e-5
0.608, -1.777e-5
0.607, -1.791e-5
0.606, -1.804e-5
0.605, -1.818e-5
0.604, -1.830e-5
0.603, -1.843e-5
0.602, -1.855e-5
0.601, -1.867e-5
0.600, -1.880e-5
0.599, -1.890e-5
0.598, -1.901e-5
0.597, -1.912e-5
0.596, -1.921e-5
0.595, -1.931e-5
0.594, -1.941e-5
0.593, -1.949e-5
0.592, -1.958e-5
0.591, -1.965e-5
0.590, -1.972e-5
0.589, -1.980e-5
0.588, -1.987e-5
0.587, -1.993e-5
0.586, -1.999e-5
0.585, -2.005e-5
0.584, -2.011e-5
0.583, -2.015e-5
0.582, -2.020e-5
0.581, -2.025e-5
0.580, -2.029e-5
0.579, -2.032e-5
0.578, -2.036e-5
0.577, -2.038e-5
0.576, -2.042e-5
0.575, -2.044e-5
0.574, -2.046e-5
0.573, -2.047e-5
0.572, -2.048e-5
0.571, -2.048e-5
0.570, -2.049e-5
0.569, -2.049e-5
0.568, -2.050e-5
0.567, -2.049e-5
0.566, -2.049e-5
0.565, -2.049e-5
0.564, -2.047e-5
0.563, -2.047e-5
0.562, -2.046e-5
0.561, -2.042e-5
0.560, -2.040e-5
0.559, -2.036e-5
0.558, -2.032e-5
0.557, -2.029e-5
0.556, -2.026e-5
0.555, -2.022e-5
0.554, -2.018e-5
0.553, -2.013e-5
0.552, -2.009e-5
0.551, -2.004e-5
0.550, -1.999e-5
0.549, -1.996e-5
0.548, -1.989e-5
0.547, -1.984e-5
0.546, -1.979e-5
0.545, -1.972e-5
0.544, -1.966e-5
0.543, -1.961e-5
0.542, -1.954e-5
0.541, -1.949e-5
0.540, -1.942e-5
0.539, -1.936e-5
0.538, -1.930e-5
0.537, -1.923e-5
0.536, -1.917e-5
0.535, -1.909e-5
0.534, -1.901e-5
0.533, -1.895e-5
0.532, -1.887e-5
0.531, -1.881e-5
0.530, -1.875e-5
0.529, -1.866e-5
0.528, -1.860e-5
0.527, -1.852e-5
0.526, -1.845e-5
0.525, -1.838e-5
0.524, -1.831e-5
0.523, -1.824e-5
0.522, -1.816e-5
0.521, -1.809e-5
0.520, -1.802e-5
0.519, -1.794e-5
0.518, -1.787e-5
0.517, -1.781e-5
0.516, -1.772e-5
0.515, -1.766e-5
0.514, -1.759e-5
0.513, -1.751e-5
0.512, -1.746e-5
0.511, -1.741e-5
0.510, -1.732e-5
0.509, -1.724e-5
0.508, -1.716e-5
0.507, -1.709e-5
0.506, -1.702e-5
0.505, -1.695e-5
0.504, -1.689e-5
0.503, -1.682e-5
0.502, -1.676e-5
0.501, -1.669e-5
0.500, -1.661e-5
0.499, -1.656e-5
0.498, -1.650e-5
0.497, -1.643e-5
0.496, -1.637e-5
0.495, -1.631e-5
0.494, -1.624e-5
0.493, -1.618e-5
0.492, -1.612e-5
0.491, -1.606e-5
0.490, -1.601e-5
0.489, -1.594e-5
0.488, -1.589e-5
0.487, -1.583e-5
0.486, -1.578e-5
0.485, -1.573e-5
0.484, -1.566e-5
0.483, -1.561e-5
0.482, -1.556e-5
0.481, -1.551e-5
0.480, -1.546e-5
0.479, -1.542e-5
0.478, -1.536e-5
0.477, -1.532e-5
0.476, -1.527e-5
0.475, -1.522e-5
0.474, -1.517e-5
0.473, -1.513e-5
0.472, -1.509e-5
0.471, -1.504e-5
0.470, -1.500e-5
0.469, -1.497e-5
0.468, -1.492e-5
0.467, -1.489e-5
0.466, -1.486e-5
0.465, -1.481e-5
0.464, -1.479e-5
0.463, -1.474e-5
0.462, -1.471e-5
0.461, -1.469e-5
0.460, -1.467e-5
0.459, -1.464e-5
0.458, -1.460e-5
0.457, -1.456e-5
0.456, -1.454e-5
0.455, -1.449e-5
0.454, -1.448e-5
0.453, -1.446e-5
0.452, -1.442e-5
0.451, -1.440e-5
0.450, -1.438e-5
0.449, -1.435e-5
0.448, -1.434e-5
0.447, -1.432e-5
0.446, -1.430e-5
0.445, -1.428e-5
0.444, -1.425e-5
0.443, -1.424e-5
0.442, -1.422e-5
0.441, -1.420e-5
0.440, -1.419e-5
0.439, -1.417e-5
0.438, -1.415e-5
0.437, -1.414e-5
0.436, -1.412e-5
0.435, -1.412e-5
0.434, -1.411e-5
0.433, -1.409e-5
0.432, -1.408e-5
0.431, -1.407e-5
0.430, -1.406e-5
0.429, -1.406e-5
0.428, -1.405e-5
0.427, -1.404e-5
0.426, -1.403e-5
0.425, -1.402e-5
0.424, -1.402e-5
0.423, -1.401e-5
0.422, -1.401e-5
0.421, -1.401e-5
0.420, -1.399e-5
0.419, -1.400e-5
0.418, -1.400e-5
0.417, -1.399e-5
0.416, -1.400e-5
0.415, -1.399e-5
0.414, -1.399e-5
0.413, -1.400e-5
0.412, -1.400e-5
0.411, -1.401e-5
0.410, -1.401e-5
0.409, -1.402e-5
0.408, -1.402e-5
0.407, -1.402e-5
0.406, -1.403e-5
0.405, -1.405e-5
0.404, -1.405e-5
0.403, -1.406e-5
0.402, -1.408e-5
0.401, -1.408e-5
0.400, -1.409e-5
0.399, -1.411e-5
0.398, -1.411e-5
0.397, -1.413e-5
0.396, -1.415e-5
0.395, -1.417e-5
0.394, -1.418e-5
0.393, -1.419e-5
0.392, -1.421e-5
0.391, -1.422e-5
0.390, -1.425e-5
0.389, -1.427e-5
0.388, -1.429e-5
0.387, -1.431e-5
0.386, -1.434e-5
0.385, -1.435e-5
0.384, -1.439e-5
0.383, -1.442e-5
0.382, -1.444e-5
0.381, -1.448e-5
0.380, -1.450e-5
0.379, -1.453e-5
0.378, -1.456e-5
0.377, -1.459e-5
0.376, -1.463e-5
0.375, -1.466e-5
0.374, -1.470e-5
0.373, -1.474e-5
0.372, -1.477e-5
0.371, -1.482e-5
0.370, -1.487e-5
0.369, -1.490e-5
0.368, -1.495e-5
0.367, -1.499e-5
0.366, -1.504e-5
0.365, -1.510e-5
0.364, -1.514e-5
0.363, -1.519e-5
0.362, -1.524e-5
0.361, -1.529e-5
0.360, -1.535e-5
0.359, -1.540e-5
0.358, -1.548e-5
0.357, -1.554e-5
0.356, -1.559e-5
0.355, -1.565e-5
0.354, -1.572e-5
0.353, -1.577e-5
0.352, -1.584e-5
0.351, -1.591e-5
0.350, -1.598e-5
0.349, -1.605e-5
0.348, -1.612e-5
0.347, -1.619e-5
0.346, -1.627e-5
0.345, -1.635e-5
0.344, -1.644e-5
0.343, -1.651e-5
0.342, -1.659e-5
0.341, -1.668e-5
0.340, -1.675e-5
0.339, -1.685e-5
0.338, -1.696e-5
0.337, -1.704e-5
0.336, -1.713e-5
0.335, -1.722e-5
0.334, -1.732e-5
0.333, -1.742e-5
0.332, -1.752e-5
0.331, -1.762e-5
0.330, -1.772e-5
0.329, -1.782e-5
0.328, -1.794e-5
0.327, -1.804e-5
0.326, -1.816e-5
0.325, -1.828e-5
0.324, -1.839e-5
0.323, -1.851e-5
0.322, -1.863e-5
0.321, -1.875e-5
0.320, -1.889e-5
0.319, -1.901e-5
0.318, -1.913e-5
0.317, -1.927e-5
0.316, -1.940e-5
0.315, -1.955e-5
0.314, -1.969e-5
0.313, -1.984e-5
0.312, -1.999e-5
0.311, -2.014e-5
0.310, -2.029e-5
0.309, -2.044e-5
0.308, -2.058e-5
0.307, -2.076e-5
0.306, -2.094e-5
0.305, -2.109e-5
0.304, -2.126e-5
0.303, -2.142e-5
0.302, -2.158e-5
0.301, -2.176e-5
0.300, -2.194e-5
0.299, -2.212e-5
0.298, -2.230e-5
0.297, -2.248e-5
0.296, -2.267e-5
0.295, -2.286e-5
0.294, -2.306e-5
0.293, -2.328e-5
0.292, -2.347e-5
0.291, -2.368e-5
0.290, -2.388e-5
0.289, -2.409e-5
0.288, -2.433e-5
0.287, -2.455e-5
0.286, -2.478e-5
0.285, -2.500e-5
0.284, -2.523e-5
0.283, -2.547e-5
0.282, -2.571e-5
0.281, -2.595e-5
0.280, -2.619e-5
0.279, -2.644e-5
0.278, -2.669e-5
0.277, -2.695e-5
0.276, -2.721e-5
0.275, -2.748e-5
0.274, -2.776e-5
0.273, -2.803e-5
0.272, -2.831e-5
0.271, -2.859e-5
0.270, -2.887e-5
0.269, -2.917e-5
0.268, -2.947e-5
0.267, -2.976e-5
0.266, -3.007e-5
0.265, -3.037e-5
0.264, -3.069e-5
0.263, -3.100e-5
0.262, -3.133e-5
0.261, -3.166e-5
0.260, -3.198e-5
0.259, -3.233e-5
0.258, -3.267e-5
0.257, -3.300e-5
0.256, -3.336e-5
0.255, -3.373e-5
0.254, -3.408e-5
0.253, -3.443e-5
0.252, -3.479e-5
0.251, -3.516e-5
0.250, -3.553e-5
0.249, -3.590e-5
0.248, -3.628e-5
0.247, -3.666e-5
0.246, -3.704e-5
0.245, -3.743e-5
0.244, -3.780e-5
0.243, -3.819e-5
0.242, -3.858e-5
0.241, -3.897e-5
0.240, -3.936e-5
0.239, -3.974e-5
0.238, -4.014e-5
0.237, -4.054e-5
0.236, -4.092e-5
0.235, -4.131e-5
0.234, -4.169e-5
0.233, -4.205e-5
0.232, -4.243e-5
0.231, -4.280e-5
0.230, -4.316e-5
0.229, -4.352e-5
0.228, -4.385e-5
0.227, -4.419e-5
0.226, -4.451e-5
0.225, -4.481e-5
0.224, -4.511e-5
0.223, -4.539e-5
0.222, -4.564e-5
0.221, -4.589e-5
0.220, -4.610e-5
0.219, -4.629e-5
0.218, -4.646e-5
0.217, -4.659e-5
0.216, -4.670e-5
0.215, -4.676e-5
0.214, -4.680e-5
0.213, -4.681e-5
0.212, -4.677e-5
0.211, -4.670e-5
0.210, -4.658e-5
0.209, -4.641e-5
0.208, -4.619e-5
0.207, -4.592e-5
0.206, -4.561e-5
0.205, -4.526e-5
0.204, -4.484e-5
0.203, -4.438e-5
0.202, -4.387e-5
0.201, -4.331e-5
0.200, -4.271e-5
0.199, -4.206e-5
0.198, -4.138e-5
0.197, -4.067e-5
0.196, -3.992e-5
0.195, -3.916e-5
0.194, -3.839e-5
0.193, -3.761e-5
0.192, -3.681e-5
0.191, -3.601e-5
0.190, -3.522e-5
0.189, -3.444e-5
0.188, -3.368e-5
0.187, -3.292e-5
0.186, -3.217e-5
0.185, -3.146e-5
0.184, -3.076e-5
0.183, -3.008e-5
0.182, -2.943e-5
0.181, -2.879e-5
0.180, -2.817e-5
0.179, -2.758e-5
0.178, -2.700e-5
0.177, -2.644e-5
0.176, -2.591e-5
0.175, -2.538e-5
0.174, -2.488e-5
0.173, -2.439e-5
0.172, -2.392e-5
0.171, -2.348e-5
0.170, -2.305e-5
0.169, -2.263e-5
0.168, -2.223e-5
0.167, -2.185e-5
0.166, -2.146e-5
0.165, -2.109e-5
0.164, -2.074e-5
0.163, -2.039e-5
0.162, -2.006e-5
0.161, -1.974e-5
0.160, -1.943e-5
0.159, -1.914e-5
0.158, -1.885e-5
0.157, -1.856e-5
0.156, -1.829e-5
0.155, -1.803e-5
0.154, -1.777e-5
0.153, -1.753e-5
0.152, -1.729e-5
0.151, -1.705e-5
0.150, -1.681e-5
0.149, -1.660e-5
0.148, -1.639e-5
0.147, -1.618e-5
0.146, -1.597e-5
0.145, -1.577e-5
0.144, -1.557e-5
0.143, -1.539e-5
0.142, -1.520e-5
0.141, -1.503e-5
0.140, -1.485e-5
0.139, -1.468e-5
0.138, -1.451e-5
0.137, -1.435e-5
0.136, -1.419e-5
0.135, -1.404e-5
0.134, -1.389e-5
0.133, -1.374e-5
0.132, -1.360e-5
0.131, -1.347e-5
0.130, -1.333e-5
0.129, -1.320e-5
0.128, -1.306e-5
0.127, -1.293e-5
0.126, -1.280e-5
0.125, -1.267e-5
0.124, -1.255e-5
0.123, -1.244e-5
0.122, -1.232e-5
0.121, -1.221e-5
0.120, -1.210e-5
0.119, -1.200e-5
0.118, -1.189e-5
0.117, -1.178e-5
0.116, -1.168e-5
0.115, -1.157e-5
0.114, -1.148e-5
0.113, -1.138e-5
0.112, -1.128e-5
0.111, -1.119e-5
0.110, -1.109e-5
0.109, -1.101e-5
0.108, -1.092e-5
0.107, -1.083e-5
0.106, -1.075e-5
0.105, -1.066e-5
0.104, -1.058e-5
0.103, -1.050e-5
0.102, -1.042e-5
0.101, -1.034e-5
0.100, -1.027e-5
0.099, -1.020e-5
0.098, -1.012e-5
0.097, -1.005e-5
0.096, -9.979e-6
0.095, -9.906e-6
0.094, -9.831e-6
0.093, -9.758e-6
0.092, -9.692e-6
0.091, -9.623e-6
0.090, -9.561e-6
0.089, -9.499e-6
0.088, -9.431e-6
0.087, -9.369e-6
0.086, -9.305e-6
0.085, -9.246e-6
0.084, -9.186e-6
0.083, -9.125e-6
0.082, -9.069e-6
0.081, -9.012e-6
0.080, -8.958e-6
0.079, -8.904e-6
0.078, -8.848e-6
0.077, -8.793e-6
0.076, -8.738e-6
0.075, -8.685e-6
0.074, -8.633e-6
0.073, -8.581e-6
0.072, -8.528e-6
0.071, -8.477e-6
0.070, -8.425e-6
0.069, -8.377e-6
0.068, -8.327e-6
0.067, -8.274e-6
0.066, -8.225e-6
0.065, -8.178e-6
0.064, -8.136e-6
0.063, -8.093e-6
0.062, -8.046e-6
0.061, -8.004e-6
0.060, -7.960e-6
0.059, -7.917e-6
0.058, -7.877e-6
0.057, -7.831e-6
0.056, -7.786e-6
0.055, -7.743e-6
0.054, -7.698e-6
0.053, -7.658e-6
0.052, -7.619e-6
0.051, -7.583e-6
0.050, -7.544e-6
0.049, -7.504e-6
0.048, -7.468e-6
0.047, -7.432e-6
0.046, -7.399e-6
0.045, -7.363e-6
0.044, -7.329e-6
0.043, -7.292e-6
0.042, -7.256e-6
0.041, -7.220e-6
0.040, -7.185e-6
0.039, -7.153e-6
0.038, -7.123e-6
0.037, -7.089e-6
0.036, -7.053e-6
0.035, -7.022e-6
0.034, -6.991e-6
0.033, -6.959e-6
0.032, -6.926e-6
0.031, -6.894e-6
0.030, -6.862e-6
0.029, -6.830e-6
0.028, -6.800e-6
0.027, -6.768e-6
0.026, -6.738e-6
0.025, -6.711e-6
0.024, -6.681e-6
0.023, -6.655e-6
0.022, -6.624e-6
0.021, -6.597e-6
0.020, -6.566e-6
0.019, -6.541e-6
0.018, -6.514e-6
0.017, -6.484e-6
0.016, -6.457e-6
0.015, -6.430e-6
0.014, -6.404e-6
0.013, -6.379e-6
0.012, -6.350e-6
0.011, -6.324e-6
0.010, -6.296e-6
0.009, -6.270e-6
0.008, -6.244e-6
0.007, -6.219e-6
0.006, -6.195e-6
0.005, -6.172e-6
0.004, -6.145e-6
0.003, -6.121e-6
0.002, -6.099e-6
0.001, -6.072e-6
