Dec. 2, 2021   15:41:00
Cyclic Voltammetry
File: d:\Data Source:  Experiment
Instrument Model:  CHI660E
Header: 
Note: 

Init E (V) = 0
High E (V) = 0.8
Low E (V) = 0
Init P/N = P
Scan Rate (V/s) = 0.05
Segment = 6
Sample Interval (V) = 0.001
Quiet Time (sec) = 0
Sensitivity (A/V) = 1e-4

Segment 1:
Ep = 0.392V
ip = 2.584e-4A
Ah = 3.713e-4C

Segment 2:
Ep = 0.207V
ip = -4.128e-5A
Ah = -4.861e-5C

Segment 3:
Ep = 0.270V
ip = 8.985e-5A
Ah = 5.315e-5C

Segment 4:
Ep = 0.216V
ip = -2.365e-5A
Ah = -3.083e-5C

Segment 5:
Ep = 0.280V
ip = 6.498e-5A
Ah = 4.187e-5C

Segment 6:
Ep = 0.224V
ip = -1.552e-5A
Ah = -2.093e-5C

Potential/V, Current/A

0.000, 2.692e-8
0.001, 9.790e-8
0.002, 1.184e-7
0.003, 1.233e-7
0.004, 1.266e-7
0.005, 1.281e-7
0.006, 1.309e-7
0.007, 1.332e-7
0.008, 1.346e-7
0.009, 1.367e-7
0.010, 1.369e-7
0.011, 1.379e-7
0.012, 1.390e-7
0.013, 1.411e-7
0.014, 1.423e-7
0.015, 1.435e-7
0.016, 1.448e-7
0.017, 1.464e-7
0.018, 1.463e-7
0.019, 1.493e-7
0.020, 1.515e-7
0.021, 1.508e-7
0.022, 1.526e-7
0.023, 1.540e-7
0.024, 1.555e-7
0.025, 1.571e-7
0.026, 1.587e-7
0.027, 1.599e-7
0.028, 1.610e-7
0.029, 1.611e-7
0.030, 1.626e-7
0.031, 1.643e-7
0.032, 1.664e-7
0.033, 1.667e-7
0.034, 1.680e-7
0.035, 1.686e-7
0.036, 1.711e-7
0.037, 1.719e-7
0.038, 1.742e-7
0.039, 1.754e-7
0.040, 1.762e-7
0.041, 1.772e-7
0.042, 1.786e-7
0.043, 1.800e-7
0.044, 1.802e-7
0.045, 1.813e-7
0.046, 1.834e-7
0.047, 1.861e-7
0.048, 1.872e-7
0.049, 1.876e-7
0.050, 1.877e-7
0.051, 1.904e-7
0.052, 1.932e-7
0.053, 1.946e-7
0.054, 1.968e-7
0.055, 1.983e-7
0.056, 1.992e-7
0.057, 2.002e-7
0.058, 2.013e-7
0.059, 2.021e-7
0.060, 2.035e-7
0.061, 2.054e-7
0.062, 2.066e-7
0.063, 2.075e-7
0.064, 2.093e-7
0.065, 2.109e-7
0.066, 2.112e-7
0.067, 2.150e-7
0.068, 2.164e-7
0.069, 2.175e-7
0.070, 2.203e-7
0.071, 2.220e-7
0.072, 2.238e-7
0.073, 2.255e-7
0.074, 2.268e-7
0.075, 2.286e-7
0.076, 2.307e-7
0.077, 2.333e-7
0.078, 2.348e-7
0.079, 2.368e-7
0.080, 2.378e-7
0.081, 2.404e-7
0.082, 2.421e-7
0.083, 2.446e-7
0.084, 2.481e-7
0.085, 2.479e-7
0.086, 2.516e-7
0.087, 2.537e-7
0.088, 2.555e-7
0.089, 2.579e-7
0.090, 2.595e-7
0.091, 2.624e-7
0.092, 2.654e-7
0.093, 2.691e-7
0.094, 2.728e-7
0.095, 2.750e-7
0.096, 2.795e-7
0.097, 2.829e-7
0.098, 2.865e-7
0.099, 2.903e-7
0.100, 2.939e-7
0.101, 2.984e-7
0.102, 3.043e-7
0.103, 3.108e-7
0.104, 3.143e-7
0.105, 3.203e-7
0.106, 3.265e-7
0.107, 3.325e-7
0.108, 3.396e-7
0.109, 3.470e-7
0.110, 3.560e-7
0.111, 3.656e-7
0.112, 3.767e-7
0.113, 3.871e-7
0.114, 3.997e-7
0.115, 4.134e-7
0.116, 4.273e-7
0.117, 4.395e-7
0.118, 4.558e-7
0.119, 4.721e-7
0.120, 4.895e-7
0.121, 5.092e-7
0.122, 5.291e-7
0.123, 5.502e-7
0.124, 5.750e-7
0.125, 6.000e-7
0.126, 6.264e-7
0.127, 6.538e-7
0.128, 6.855e-7
0.129, 7.180e-7
0.130, 7.510e-7
0.131, 7.868e-7
0.132, 8.267e-7
0.133, 8.687e-7
0.134, 9.143e-7
0.135, 9.609e-7
0.136, 1.010e-6
0.137, 1.063e-6
0.138, 1.119e-6
0.139, 1.175e-6
0.140, 1.235e-6
0.141, 1.297e-6
0.142, 1.361e-6
0.143, 1.426e-6
0.144, 1.495e-6
0.145, 1.563e-6
0.146, 1.633e-6
0.147, 1.707e-6
0.148, 1.781e-6
0.149, 1.855e-6
0.150, 1.929e-6
0.151, 2.002e-6
0.152, 2.080e-6
0.153, 2.157e-6
0.154, 2.235e-6
0.155, 2.312e-6
0.156, 2.386e-6
0.157, 2.459e-6
0.158, 2.532e-6
0.159, 2.602e-6
0.160, 2.671e-6
0.161, 2.738e-6
0.162, 2.802e-6
0.163, 2.864e-6
0.164, 2.923e-6
0.165, 2.980e-6
0.166, 3.038e-6
0.167, 3.094e-6
0.168, 3.143e-6
0.169, 3.191e-6
0.170, 3.237e-6
0.171, 3.280e-6
0.172, 3.319e-6
0.173, 3.358e-6
0.174, 3.393e-6
0.175, 3.423e-6
0.176, 3.454e-6
0.177, 3.480e-6
0.178, 3.503e-6
0.179, 3.529e-6
0.180, 3.554e-6
0.181, 3.578e-6
0.182, 3.603e-6
0.183, 3.628e-6
0.184, 3.654e-6
0.185, 3.684e-6
0.186, 3.713e-6
0.187, 3.745e-6
0.188, 3.780e-6
0.189, 3.817e-6
0.190, 3.861e-6
0.191, 3.905e-6
0.192, 3.954e-6
0.193, 4.008e-6
0.194, 4.066e-6
0.195, 4.131e-6
0.196, 4.202e-6
0.197, 4.274e-6
0.198, 4.357e-6
0.199, 4.441e-6
0.200, 4.529e-6
0.201, 4.629e-6
0.202, 4.732e-6
0.203, 4.845e-6
0.204, 4.964e-6
0.205, 5.092e-6
0.206, 5.225e-6
0.207, 5.359e-6
0.208, 5.505e-6
0.209, 5.659e-6
0.210, 5.814e-6
0.211, 5.980e-6
0.212, 6.147e-6
0.213, 6.317e-6
0.214, 6.499e-6
0.215, 6.681e-6
0.216, 6.877e-6
0.217, 7.091e-6
0.218, 7.315e-6
0.219, 7.555e-6
0.220, 7.802e-6
0.221, 8.065e-6
0.222, 8.354e-6
0.223, 8.650e-6
0.224, 8.967e-6
0.225, 9.298e-6
0.226, 9.642e-6
0.227, 1.000e-5
0.228, 1.038e-5
0.229, 1.076e-5
0.230, 1.116e-5
0.231, 1.156e-5
0.232, 1.197e-5
0.233, 1.239e-5
0.234, 1.280e-5
0.235, 1.321e-5
0.236, 1.362e-5
0.237, 1.403e-5
0.238, 1.443e-5
0.239, 1.482e-5
0.240, 1.519e-5
0.241, 1.555e-5
0.242, 1.589e-5
0.243, 1.621e-5
0.244, 1.650e-5
0.245, 1.675e-5
0.246, 1.700e-5
0.247, 1.721e-5
0.248, 1.741e-5
0.249, 1.759e-5
0.250, 1.777e-5
0.251, 1.795e-5
0.252, 1.814e-5
0.253, 1.835e-5
0.254, 1.860e-5
0.255, 1.887e-5
0.256, 1.919e-5
0.257, 1.955e-5
0.258, 1.996e-5
0.259, 2.043e-5
0.260, 2.094e-5
0.261, 2.150e-5
0.262, 2.213e-5
0.263, 2.281e-5
0.264, 2.355e-5
0.265, 2.434e-5
0.266, 2.518e-5
0.267, 2.608e-5
0.268, 2.702e-5
0.269, 2.803e-5
0.270, 2.908e-5
0.271, 3.017e-5
0.272, 3.132e-5
0.273, 3.251e-5
0.274, 3.374e-5
0.275, 3.502e-5
0.276, 3.633e-5
0.277, 3.768e-5
0.278, 3.908e-5
0.279, 4.051e-5
0.280, 4.198e-5
0.281, 4.349e-5
0.282, 4.503e-5
0.283, 4.662e-5
0.284, 4.824e-5
0.285, 4.989e-5
0.286, 5.158e-5
0.287, 5.330e-5
0.288, 5.507e-5
0.289, 5.686e-5
0.290, 5.868e-5
0.291, 6.055e-5
0.292, 6.246e-5
0.293, 6.439e-5
0.294, 6.635e-5
0.295, 6.834e-5
0.296, 7.038e-5
0.297, 7.243e-5
0.298, 7.452e-5
0.299, 7.665e-5
0.300, 7.880e-5
0.301, 8.098e-5
0.302, 8.319e-5
0.303, 8.543e-5
0.304, 8.770e-5
0.305, 8.999e-5
0.306, 9.230e-5
0.307, 9.466e-5
0.308, 9.704e-5
0.309, 9.942e-5
0.310, 1.018e-4
0.311, 1.043e-4
0.312, 1.067e-4
0.313, 1.092e-4
0.314, 1.118e-4
0.315, 1.143e-4
0.316, 1.168e-4
0.317, 1.194e-4
0.318, 1.220e-4
0.319, 1.246e-4
0.320, 1.273e-4
0.321, 1.299e-4
0.322, 1.326e-4
0.323, 1.352e-4
0.324, 1.379e-4
0.325, 1.406e-4
0.326, 1.433e-4
0.327, 1.460e-4
0.328, 1.487e-4
0.329, 1.514e-4
0.330, 1.542e-4
0.331, 1.569e-4
0.332, 1.597e-4
0.333, 1.624e-4
0.334, 1.651e-4
0.335, 1.679e-4
0.336, 1.706e-4
0.337, 1.734e-4
0.338, 1.761e-4
0.339, 1.788e-4
0.340, 1.815e-4
0.341, 1.842e-4
0.342, 1.869e-4
0.343, 1.896e-4
0.344, 1.922e-4
0.345, 1.948e-4
0.346, 1.974e-4
0.347, 2.000e-4
0.348, 2.026e-4
0.349, 2.051e-4
0.350, 2.076e-4
0.351, 2.101e-4
0.352, 2.126e-4
0.353, 2.150e-4
0.354, 2.174e-4
0.355, 2.197e-4
0.356, 2.221e-4
0.357, 2.244e-4
0.358, 2.266e-4
0.359, 2.288e-4
0.360, 2.310e-4
0.361, 2.332e-4
0.362, 2.354e-4
0.363, 2.374e-4
0.364, 2.394e-4
0.365, 2.414e-4
0.366, 2.434e-4
0.367, 2.452e-4
0.368, 2.470e-4
0.369, 2.488e-4
0.370, 2.505e-4
0.371, 2.521e-4
0.372, 2.538e-4
0.373, 2.553e-4
0.374, 2.567e-4
0.375, 2.582e-4
0.376, 2.596e-4
0.377, 2.608e-4
0.378, 2.620e-4
0.379, 2.631e-4
0.380, 2.642e-4
0.381, 2.651e-4
0.382, 2.660e-4
0.383, 2.668e-4
0.384, 2.674e-4
0.385, 2.680e-4
0.386, 2.686e-4
0.387, 2.690e-4
0.388, 2.694e-4
0.389, 2.697e-4
0.390, 2.698e-4
0.391, 2.700e-4
0.392, 2.700e-4
0.393, 2.700e-4
0.394, 2.698e-4
0.395, 2.696e-4
0.396, 2.693e-4
0.397, 2.688e-4
0.398, 2.682e-4
0.399, 2.675e-4
0.400, 2.667e-4
0.401, 2.657e-4
0.402, 2.646e-4
0.403, 2.636e-4
0.404, 2.624e-4
0.405, 2.611e-4
0.406, 2.598e-4
0.407, 2.584e-4
0.408, 2.569e-4
0.409, 2.553e-4
0.410, 2.536e-4
0.411, 2.518e-4
0.412, 2.499e-4
0.413, 2.478e-4
0.414, 2.458e-4
0.415, 2.437e-4
0.416, 2.414e-4
0.417, 2.391e-4
0.418, 2.366e-4
0.419, 2.341e-4
0.420, 2.315e-4
0.421, 2.288e-4
0.422, 2.260e-4
0.423, 2.232e-4
0.424, 2.203e-4
0.425, 2.174e-4
0.426, 2.144e-4
0.427, 2.113e-4
0.428, 2.082e-4
0.429, 2.050e-4
0.430, 2.018e-4
0.431, 1.986e-4
0.432, 1.953e-4
0.433, 1.920e-4
0.434, 1.886e-4
0.435, 1.852e-4
0.436, 1.818e-4
0.437, 1.785e-4
0.438, 1.752e-4
0.439, 1.718e-4
0.440, 1.686e-4
0.441, 1.652e-4
0.442, 1.619e-4
0.443, 1.586e-4
0.444, 1.553e-4
0.445, 1.521e-4
0.446, 1.490e-4
0.447, 1.458e-4
0.448, 1.428e-4
0.449, 1.398e-4
0.450, 1.368e-4
0.451, 1.338e-4
0.452, 1.309e-4
0.453, 1.280e-4
0.454, 1.253e-4
0.455, 1.225e-4
0.456, 1.199e-4
0.457, 1.173e-4
0.458, 1.148e-4
0.459, 1.123e-4
0.460, 1.100e-4
0.461, 1.078e-4
0.462, 1.056e-4
0.463, 1.035e-4
0.464, 1.015e-4
0.465, 9.954e-5
0.466, 9.770e-5
0.467, 9.597e-5
0.468, 9.425e-5
0.469, 9.262e-5
0.470, 9.113e-5
0.471, 8.971e-5
0.472, 8.832e-5
0.473, 8.700e-5
0.474, 8.577e-5
0.475, 8.457e-5
0.476, 8.339e-5
0.477, 8.227e-5
0.478, 8.121e-5
0.479, 8.020e-5
0.480, 7.925e-5
0.481, 7.834e-5
0.482, 7.744e-5
0.483, 7.661e-5
0.484, 7.581e-5
0.485, 7.500e-5
0.486, 7.422e-5
0.487, 7.346e-5
0.488, 7.272e-5
0.489, 7.202e-5
0.490, 7.133e-5
0.491, 7.068e-5
0.492, 7.003e-5
0.493, 6.939e-5
0.494, 6.877e-5
0.495, 6.817e-5
0.496, 6.762e-5
0.497, 6.706e-5
0.498, 6.653e-5
0.499, 6.600e-5
0.500, 6.548e-5
0.501, 6.498e-5
0.502, 6.449e-5
0.503, 6.402e-5
0.504, 6.356e-5
0.505, 6.311e-5
0.506, 6.271e-5
0.507, 6.228e-5
0.508, 6.183e-5
0.509, 6.140e-5
0.510, 6.103e-5
0.511, 6.065e-5
0.512, 6.030e-5
0.513, 5.997e-5
0.514, 5.962e-5
0.515, 5.931e-5
0.516, 5.895e-5
0.517, 5.859e-5
0.518, 5.826e-5
0.519, 5.795e-5
0.520, 5.765e-5
0.521, 5.735e-5
0.522, 5.706e-5
0.523, 5.680e-5
0.524, 5.653e-5
0.525, 5.627e-5
0.526, 5.600e-5
0.527, 5.572e-5
0.528, 5.546e-5
0.529, 5.519e-5
0.530, 5.492e-5
0.531, 5.468e-5
0.532, 5.443e-5
0.533, 5.416e-5
0.534, 5.389e-5
0.535, 5.363e-5
0.536, 5.338e-5
0.537, 5.314e-5
0.538, 5.290e-5
0.539, 5.267e-5
0.540, 5.244e-5
0.541, 5.221e-5
0.542, 5.200e-5
0.543, 5.178e-5
0.544, 5.158e-5
0.545, 5.138e-5
0.546, 5.116e-5
0.547, 5.099e-5
0.548, 5.079e-5
0.549, 5.062e-5
0.550, 5.046e-5
0.551, 5.032e-5
0.552, 5.018e-5
0.553, 5.005e-5
0.554, 4.993e-5
0.555, 4.982e-5
0.556, 4.967e-5
0.557, 4.955e-5
0.558, 4.943e-5
0.559, 4.932e-5
0.560, 4.926e-5
0.561, 4.923e-5
0.562, 4.916e-5
0.563, 4.911e-5
0.564, 4.904e-5
0.565, 4.896e-5
0.566, 4.889e-5
0.567, 4.885e-5
0.568, 4.881e-5
0.569, 4.878e-5
0.570, 4.874e-5
0.571, 4.872e-5
0.572, 4.871e-5
0.573, 4.870e-5
0.574, 4.869e-5
0.575, 4.869e-5
0.576, 4.871e-5
0.577, 4.872e-5
0.578, 4.870e-5
0.579, 4.873e-5
0.580, 4.877e-5
0.581, 4.877e-5
0.582, 4.878e-5
0.583, 4.881e-5
0.584, 4.886e-5
0.585, 4.890e-5
0.586, 4.896e-5
0.587, 4.903e-5
0.588, 4.909e-5
0.589, 4.918e-5
0.590, 4.930e-5
0.591, 4.940e-5
0.592, 4.950e-5
0.593, 4.957e-5
0.594, 4.966e-5
0.595, 4.980e-5
0.596, 4.991e-5
0.597, 5.002e-5
0.598, 5.015e-5
0.599, 5.031e-5
0.600, 5.045e-5
0.601, 5.058e-5
0.602, 5.074e-5
0.603, 5.091e-5
0.604, 5.108e-5
0.605, 5.124e-5
0.606, 5.142e-5
0.607, 5.160e-5
0.608, 5.181e-5
0.609, 5.200e-5
0.610, 5.218e-5
0.611, 5.237e-5
0.612, 5.253e-5
0.613, 5.271e-5
0.614, 5.293e-5
0.615, 5.317e-5
0.616, 5.339e-5
0.617, 5.360e-5
0.618, 5.381e-5
0.619, 5.404e-5
0.620, 5.425e-5
0.621, 5.451e-5
0.622, 5.477e-5
0.623, 5.500e-5
0.624, 5.526e-5
0.625, 5.553e-5
0.626, 5.579e-5
0.627, 5.608e-5
0.628, 5.636e-5
0.629, 5.665e-5
0.630, 5.697e-5
0.631, 5.729e-5
0.632, 5.762e-5
0.633, 5.795e-5
0.634, 5.830e-5
0.635, 5.868e-5
0.636, 5.904e-5
0.637, 5.942e-5
0.638, 5.982e-5
0.639, 6.022e-5
0.640, 6.063e-5
0.641, 6.102e-5
0.642, 6.144e-5
0.643, 6.188e-5
0.644, 6.231e-5
0.645, 6.274e-5
0.646, 6.318e-5
0.647, 6.365e-5
0.648, 6.413e-5
0.649, 6.462e-5
0.650, 6.513e-5
0.651, 6.565e-5
0.652, 6.619e-5
0.653, 6.673e-5
0.654, 6.732e-5
0.655, 6.790e-5
0.656, 6.850e-5
0.657, 6.910e-5
0.658, 6.970e-5
0.659, 7.035e-5
0.660, 7.100e-5
0.661, 7.167e-5
0.662, 7.235e-5
0.663, 7.303e-5
0.664, 7.374e-5
0.665, 7.446e-5
0.666, 7.521e-5
0.667, 7.597e-5
0.668, 7.673e-5
0.669, 7.752e-5
0.670, 7.834e-5
0.671, 7.915e-5
0.672, 8.000e-5
0.673, 8.086e-5
0.674, 8.174e-5
0.675, 8.263e-5
0.676, 8.355e-5
0.677, 8.449e-5
0.678, 8.547e-5
0.679, 8.643e-5
0.680, 8.743e-5
0.681, 8.845e-5
0.682, 8.948e-5
0.683, 9.055e-5
0.684, 9.162e-5
0.685, 9.269e-5
0.686, 9.381e-5
0.687, 9.497e-5
0.688, 9.616e-5
0.689, 9.733e-5
0.690, 9.853e-5
0.691, 9.978e-5
0.692, 1.010e-4
0.693, 1.023e-4
0.694, 1.036e-4
0.695, 1.049e-4
0.696, 1.063e-4
0.697, 1.076e-4
0.698, 1.090e-4
0.699, 1.105e-4
0.700, 1.119e-4
0.701, 1.133e-4
0.702, 1.148e-4
0.703, 1.163e-4
0.704, 1.179e-4
0.705, 1.194e-4
0.706, 1.210e-4
0.707, 1.226e-4
0.708, 1.242e-4
0.709, 1.258e-4
0.710, 1.274e-4
0.711, 1.291e-4
0.712, 1.308e-4
0.713, 1.325e-4
0.714, 1.342e-4
0.715, 1.360e-4
0.716, 1.377e-4
0.717, 1.395e-4
0.718, 1.414e-4
0.719, 1.432e-4
0.720, 1.451e-4
0.721, 1.470e-4
0.722, 1.488e-4
0.723, 1.508e-4
0.724, 1.527e-4
0.725, 1.546e-4
0.726, 1.566e-4
0.727, 1.586e-4
0.728, 1.606e-4
0.729, 1.626e-4
0.730, 1.647e-4
0.731, 1.667e-4
0.732, 1.688e-4
0.733, 1.709e-4
0.734, 1.730e-4
0.735, 1.752e-4
0.736, 1.773e-4
0.737, 1.795e-4
0.738, 1.817e-4
0.739, 1.838e-4
0.740, 1.860e-4
0.741, 1.883e-4
0.742, 1.906e-4
0.743, 1.928e-4
0.744, 1.951e-4
0.745, 1.974e-4
0.746, 1.998e-4
0.747, 2.021e-4
0.748, 2.045e-4
0.749, 2.068e-4
0.750, 2.092e-4
0.751, 2.116e-4
0.752, 2.140e-4
0.753, 2.163e-4
0.754, 2.188e-4
0.755, 2.212e-4
0.756, 2.237e-4
0.757, 2.262e-4
0.758, 2.287e-4
0.759, 2.312e-4
0.760, 2.338e-4
0.761, 2.363e-4
0.762, 2.389e-4
0.763, 2.415e-4
0.764, 2.441e-4
0.765, 2.467e-4
0.766, 2.494e-4
0.767, 2.520e-4
0.768, 2.547e-4
0.769, 2.574e-4
0.770, 2.600e-4
0.771, 2.627e-4
0.772, 2.654e-4
0.773, 2.682e-4
0.774, 2.709e-4
0.775, 2.736e-4
0.776, 2.764e-4
0.777, 2.791e-4
0.778, 2.818e-4
0.779, 2.846e-4
0.780, 2.875e-4
0.781, 2.903e-4
0.782, 2.931e-4
0.783, 2.960e-4
0.784, 2.988e-4
0.785, 3.017e-4
0.786, 3.046e-4
0.787, 3.075e-4
0.788, 3.105e-4
0.789, 3.135e-4
0.790, 3.164e-4
0.791, 3.193e-4
0.792, 3.223e-4
0.793, 3.252e-4
0.794, 3.283e-4
0.795, 3.313e-4
0.796, 3.343e-4
0.797, 3.373e-4
0.798, 3.403e-4
0.799, 3.433e-4
0.800, 3.457e-4
0.799, 3.428e-4
0.798, 3.370e-4
0.797, 3.311e-4
0.796, 3.254e-4
0.795, 3.200e-4
0.794, 3.147e-4
0.793, 3.095e-4
0.792, 3.044e-4
0.791, 2.993e-4
0.790, 2.944e-4
0.789, 2.895e-4
0.788, 2.847e-4
0.787, 2.799e-4
0.786, 2.752e-4
0.785, 2.706e-4
0.784, 2.660e-4
0.783, 2.615e-4
0.782, 2.570e-4
0.781, 2.526e-4
0.780, 2.482e-4
0.779, 2.440e-4
0.778, 2.397e-4
0.777, 2.355e-4
0.776, 2.313e-4
0.775, 2.272e-4
0.774, 2.232e-4
0.773, 2.191e-4
0.772, 2.151e-4
0.771, 2.113e-4
0.770, 2.074e-4
0.769, 2.037e-4
0.768, 1.999e-4
0.767, 1.962e-4
0.766, 1.925e-4
0.765, 1.889e-4
0.764, 1.853e-4
0.763, 1.818e-4
0.762, 1.783e-4
0.761, 1.749e-4
0.760, 1.715e-4
0.759, 1.681e-4
0.758, 1.648e-4
0.757, 1.614e-4
0.756, 1.582e-4
0.755, 1.550e-4
0.754, 1.518e-4
0.753, 1.488e-4
0.752, 1.457e-4
0.751, 1.427e-4
0.750, 1.397e-4
0.749, 1.367e-4
0.748, 1.338e-4
0.747, 1.309e-4
0.746, 1.282e-4
0.745, 1.254e-4
0.744, 1.227e-4
0.743, 1.200e-4
0.742, 1.173e-4
0.741, 1.147e-4
0.740, 1.121e-4
0.739, 1.096e-4
0.738, 1.071e-4
0.737, 1.046e-4
0.736, 1.022e-4
0.735, 9.976e-5
0.734, 9.741e-5
0.733, 9.509e-5
0.732, 9.279e-5
0.731, 9.057e-5
0.730, 8.836e-5
0.729, 8.618e-5
0.728, 8.402e-5
0.727, 8.194e-5
0.726, 7.988e-5
0.725, 7.784e-5
0.724, 7.587e-5
0.723, 7.391e-5
0.722, 7.200e-5
0.721, 7.012e-5
0.720, 6.825e-5
0.719, 6.643e-5
0.718, 6.466e-5
0.717, 6.291e-5
0.716, 6.116e-5
0.715, 5.947e-5
0.714, 5.780e-5
0.713, 5.617e-5
0.712, 5.458e-5
0.711, 5.301e-5
0.710, 5.150e-5
0.709, 5.000e-5
0.708, 4.854e-5
0.707, 4.710e-5
0.706, 4.568e-5
0.705, 4.432e-5
0.704, 4.295e-5
0.703, 4.162e-5
0.702, 4.034e-5
0.701, 3.907e-5
0.700, 3.783e-5
0.699, 3.662e-5
0.698, 3.543e-5
0.697, 3.427e-5
0.696, 3.313e-5
0.695, 3.203e-5
0.694, 3.094e-5
0.693, 2.988e-5
0.692, 2.885e-5
0.691, 2.784e-5
0.690, 2.685e-5
0.689, 2.589e-5
0.688, 2.496e-5
0.687, 2.404e-5
0.686, 2.315e-5
0.685, 2.226e-5
0.684, 2.140e-5
0.683, 2.056e-5
0.682, 1.974e-5
0.681, 1.896e-5
0.680, 1.818e-5
0.679, 1.743e-5
0.678, 1.670e-5
0.677, 1.597e-5
0.676, 1.528e-5
0.675, 1.459e-5
0.674, 1.393e-5
0.673, 1.329e-5
0.672, 1.265e-5
0.671, 1.203e-5
0.670, 1.143e-5
0.669, 1.085e-5
0.668, 1.029e-5
0.667, 9.730e-6
0.666, 9.185e-6
0.665, 8.653e-6
0.664, 8.133e-6
0.663, 7.643e-6
0.662, 7.150e-6
0.661, 6.667e-6
0.660, 6.220e-6
0.659, 5.765e-6
0.658, 5.322e-6
0.657, 4.912e-6
0.656, 4.484e-6
0.655, 4.078e-6
0.654, 3.688e-6
0.653, 3.307e-6
0.652, 2.934e-6
0.651, 2.562e-6
0.650, 2.206e-6
0.649, 1.870e-6
0.648, 1.529e-6
0.647, 1.204e-6
0.646, 8.772e-7
0.645, 5.644e-7
0.644, 2.669e-7
0.643, -3.531e-8
0.642, -3.279e-7
0.641, -5.977e-7
0.640, -8.867e-7
0.639, -1.163e-6
0.638, -1.416e-6
0.637, -1.673e-6
0.636, -1.919e-6
0.635, -2.167e-6
0.634, -2.397e-6
0.633, -2.630e-6
0.632, -2.858e-6
0.631, -3.061e-6
0.630, -3.275e-6
0.629, -3.486e-6
0.628, -3.675e-6
0.627, -3.884e-6
0.626, -4.082e-6
0.625, -4.260e-6
0.624, -4.444e-6
0.623, -4.620e-6
0.622, -4.789e-6
0.621, -4.962e-6
0.620, -5.126e-6
0.619, -5.288e-6
0.618, -5.442e-6
0.617, -5.581e-6
0.616, -5.736e-6
0.615, -5.882e-6
0.614, -6.039e-6
0.613, -6.182e-6
0.612, -6.300e-6
0.611, -6.434e-6
0.610, -6.546e-6
0.609, -6.655e-6
0.608, -6.782e-6
0.607, -6.897e-6
0.606, -7.004e-6
0.605, -7.117e-6
0.604, -7.217e-6
0.603, -7.328e-6
0.602, -7.425e-6
0.601, -7.522e-6
0.600, -7.627e-6
0.599, -7.711e-6
0.598, -7.799e-6
0.597, -7.887e-6
0.596, -7.955e-6
0.595, -8.041e-6
0.594, -8.121e-6
0.593, -8.186e-6
0.592, -8.264e-6
0.591, -8.334e-6
0.590, -8.397e-6
0.589, -8.475e-6
0.588, -8.535e-6
0.587, -8.599e-6
0.586, -8.658e-6
0.585, -8.707e-6
0.584, -8.762e-6
0.583, -8.804e-6
0.582, -8.857e-6
0.581, -8.910e-6
0.580, -8.949e-6
0.579, -9.001e-6
0.578, -9.042e-6
0.577, -9.069e-6
0.576, -9.112e-6
0.575, -9.151e-6
0.574, -9.178e-6
0.573, -9.214e-6
0.572, -9.235e-6
0.571, -9.267e-6
0.570, -9.299e-6
0.569, -9.328e-6
0.568, -9.362e-6
0.567, -9.378e-6
0.566, -9.390e-6
0.565, -9.408e-6
0.564, -9.418e-6
0.563, -9.452e-6
0.562, -9.479e-6
0.561, -9.479e-6
0.560, -9.498e-6
0.559, -9.509e-6
0.558, -9.511e-6
0.557, -9.527e-6
0.556, -9.537e-6
0.555, -9.548e-6
0.554, -9.557e-6
0.553, -9.550e-6
0.552, -9.566e-6
0.551, -9.565e-6
0.550, -9.580e-6
0.549, -9.581e-6
0.548, -9.562e-6
0.547, -9.571e-6
0.546, -9.573e-6
0.545, -9.574e-6
0.544, -9.584e-6
0.543, -9.577e-6
0.542, -9.571e-6
0.541, -9.574e-6
0.540, -9.561e-6
0.539, -9.560e-6
0.538, -9.560e-6
0.537, -9.551e-6
0.536, -9.548e-6
0.535, -9.539e-6
0.534, -9.536e-6
0.533, -9.537e-6
0.532, -9.521e-6
0.531, -9.523e-6
0.530, -9.523e-6
0.529, -9.512e-6
0.528, -9.510e-6
0.527, -9.497e-6
0.526, -9.488e-6
0.525, -9.484e-6
0.524, -9.480e-6
0.523, -9.472e-6
0.522, -9.461e-6
0.521, -9.443e-6
0.520, -9.443e-6
0.519, -9.443e-6
0.518, -9.439e-6
0.517, -9.433e-6
0.516, -9.416e-6
0.515, -9.411e-6
0.514, -9.409e-6
0.513, -9.397e-6
0.512, -9.406e-6
0.511, -9.415e-6
0.510, -9.394e-6
0.509, -9.383e-6
0.508, -9.366e-6
0.507, -9.357e-6
0.506, -9.349e-6
0.505, -9.338e-6
0.504, -9.330e-6
0.503, -9.318e-6
0.502, -9.306e-6
0.501, -9.305e-6
0.500, -9.289e-6
0.499, -9.288e-6
0.498, -9.291e-6
0.497, -9.271e-6
0.496, -9.272e-6
0.495, -9.264e-6
0.494, -9.256e-6
0.493, -9.261e-6
0.492, -9.254e-6
0.491, -9.255e-6
0.490, -9.247e-6
0.489, -9.236e-6
0.488, -9.236e-6
0.487, -9.229e-6
0.486, -9.232e-6
0.485, -9.232e-6
0.484, -9.218e-6
0.483, -9.222e-6
0.482, -9.221e-6
0.481, -9.209e-6
0.480, -9.215e-6
0.479, -9.213e-6
0.478, -9.208e-6
0.477, -9.214e-6
0.476, -9.208e-6
0.475, -9.207e-6
0.474, -9.214e-6
0.473, -9.218e-6
0.472, -9.223e-6
0.471, -9.218e-6
0.470, -9.220e-6
0.469, -9.233e-6
0.468, -9.225e-6
0.467, -9.232e-6
0.466, -9.237e-6
0.465, -9.234e-6
0.464, -9.250e-6
0.463, -9.247e-6
0.462, -9.251e-6
0.461, -9.268e-6
0.460, -9.286e-6
0.459, -9.287e-6
0.458, -9.290e-6
0.457, -9.286e-6
0.456, -9.292e-6
0.455, -9.292e-6
0.454, -9.305e-6
0.453, -9.323e-6
0.452, -9.322e-6
0.451, -9.332e-6
0.450, -9.347e-6
0.449, -9.349e-6
0.448, -9.375e-6
0.447, -9.386e-6
0.446, -9.392e-6
0.445, -9.404e-6
0.444, -9.408e-6
0.443, -9.421e-6
0.442, -9.433e-6
0.441, -9.441e-6
0.440, -9.455e-6
0.439, -9.470e-6
0.438, -9.484e-6
0.437, -9.503e-6
0.436, -9.513e-6
0.435, -9.538e-6
0.434, -9.555e-6
0.433, -9.558e-6
0.432, -9.581e-6
0.431, -9.599e-6
0.430, -9.614e-6
0.429, -9.636e-6
0.428, -9.653e-6
0.427, -9.670e-6
0.426, -9.685e-6
0.425, -9.701e-6
0.424, -9.725e-6
0.423, -9.746e-6
0.422, -9.767e-6
0.421, -9.789e-6
0.420, -9.803e-6
0.419, -9.828e-6
0.418, -9.851e-6
0.417, -9.864e-6
0.416, -9.899e-6
0.415, -9.924e-6
0.414, -9.944e-6
0.413, -9.973e-6
0.412, -9.987e-6
0.411, -1.002e-5
0.410, -1.005e-5
0.409, -1.008e-5
0.408, -1.011e-5
0.407, -1.012e-5
0.406, -1.015e-5
0.405, -1.018e-5
0.404, -1.020e-5
0.403, -1.024e-5
0.402, -1.028e-5
0.401, -1.029e-5
0.400, -1.033e-5
0.399, -1.036e-5
0.398, -1.038e-5
0.397, -1.042e-5
0.396, -1.045e-5
0.395, -1.048e-5
0.394, -1.052e-5
0.393, -1.055e-5
0.392, -1.059e-5
0.391, -1.062e-5
0.390, -1.066e-5
0.389, -1.070e-5
0.388, -1.072e-5
0.387, -1.077e-5
0.386, -1.081e-5
0.385, -1.084e-5
0.384, -1.089e-5
0.383, -1.093e-5
0.382, -1.096e-5
0.381, -1.102e-5
0.380, -1.106e-5
0.379, -1.110e-5
0.378, -1.114e-5
0.377, -1.118e-5
0.376, -1.123e-5
0.375, -1.127e-5
0.374, -1.132e-5
0.373, -1.137e-5
0.372, -1.141e-5
0.371, -1.147e-5
0.370, -1.152e-5
0.369, -1.156e-5
0.368, -1.161e-5
0.367, -1.166e-5
0.366, -1.171e-5
0.365, -1.176e-5
0.364, -1.182e-5
0.363, -1.188e-5
0.362, -1.193e-5
0.361, -1.199e-5
0.360, -1.205e-5
0.359, -1.211e-5
0.358, -1.218e-5
0.357, -1.225e-5
0.356, -1.229e-5
0.355, -1.235e-5
0.354, -1.241e-5
0.353, -1.247e-5
0.352, -1.254e-5
0.351, -1.261e-5
0.350, -1.267e-5
0.349, -1.274e-5
0.348, -1.281e-5
0.347, -1.289e-5
0.346, -1.296e-5
0.345, -1.304e-5
0.344, -1.311e-5
0.343, -1.318e-5
0.342, -1.327e-5
0.341, -1.335e-5
0.340, -1.342e-5
0.339, -1.350e-5
0.338, -1.359e-5
0.337, -1.367e-5
0.336, -1.375e-5
0.335, -1.383e-5
0.334, -1.392e-5
0.333, -1.402e-5
0.332, -1.411e-5
0.331, -1.421e-5
0.330, -1.430e-5
0.329, -1.440e-5
0.328, -1.449e-5
0.327, -1.459e-5
0.326, -1.470e-5
0.325, -1.481e-5
0.324, -1.491e-5
0.323, -1.503e-5
0.322, -1.513e-5
0.321, -1.524e-5
0.320, -1.536e-5
0.319, -1.548e-5
0.318, -1.559e-5
0.317, -1.572e-5
0.316, -1.584e-5
0.315, -1.597e-5
0.314, -1.609e-5
0.313, -1.622e-5
0.312, -1.636e-5
0.311, -1.649e-5
0.310, -1.662e-5
0.309, -1.677e-5
0.308, -1.690e-5
0.307, -1.708e-5
0.306, -1.725e-5
0.305, -1.738e-5
0.304, -1.753e-5
0.303, -1.768e-5
0.302, -1.783e-5
0.301, -1.800e-5
0.300, -1.816e-5
0.299, -1.833e-5
0.298, -1.850e-5
0.297, -1.867e-5
0.296, -1.885e-5
0.295, -1.902e-5
0.294, -1.921e-5
0.293, -1.941e-5
0.292, -1.960e-5
0.291, -1.979e-5
0.290, -1.999e-5
0.289, -2.019e-5
0.288, -2.041e-5
0.287, -2.062e-5
0.286, -2.083e-5
0.285, -2.106e-5
0.284, -2.127e-5
0.283, -2.151e-5
0.282, -2.174e-5
0.281, -2.197e-5
0.280, -2.222e-5
0.279, -2.246e-5
0.278, -2.272e-5
0.277, -2.297e-5
0.276, -2.323e-5
0.275, -2.350e-5
0.274, -2.379e-5
0.273, -2.406e-5
0.272, -2.435e-5
0.271, -2.464e-5
0.270, -2.493e-5
0.269, -2.524e-5
0.268, -2.554e-5
0.267, -2.586e-5
0.266, -2.618e-5
0.265, -2.650e-5
0.264, -2.684e-5
0.263, -2.717e-5
0.262, -2.753e-5
0.261, -2.789e-5
0.260, -2.824e-5
0.259, -2.862e-5
0.258, -2.900e-5
0.257, -2.937e-5
0.256, -2.977e-5
0.255, -3.018e-5
0.254, -3.058e-5
0.253, -3.099e-5
0.252, -3.140e-5
0.251, -3.183e-5
0.250, -3.228e-5
0.249, -3.273e-5
0.248, -3.319e-5
0.247, -3.364e-5
0.246, -3.410e-5
0.245, -3.459e-5
0.244, -3.507e-5
0.243, -3.556e-5
0.242, -3.606e-5
0.241, -3.656e-5
0.240, -3.707e-5
0.239, -3.758e-5
0.238, -3.812e-5
0.237, -3.865e-5
0.236, -3.919e-5
0.235, -3.973e-5
0.234, -4.029e-5
0.233, -4.085e-5
0.232, -4.141e-5
0.231, -4.196e-5
0.230, -4.253e-5
0.229, -4.310e-5
0.228, -4.365e-5
0.227, -4.421e-5
0.226, -4.478e-5
0.225, -4.535e-5
0.224, -4.591e-5
0.223, -4.646e-5
0.222, -4.700e-5
0.221, -4.753e-5
0.220, -4.804e-5
0.219, -4.854e-5
0.218, -4.903e-5
0.217, -4.950e-5
0.216, -4.995e-5
0.215, -5.036e-5
0.214, -5.073e-5
0.213, -5.108e-5
0.212, -5.139e-5
0.211, -5.165e-5
0.210, -5.188e-5
0.209, -5.203e-5
0.208, -5.212e-5
0.207, -5.213e-5
0.206, -5.208e-5
0.205, -5.197e-5
0.204, -5.176e-5
0.203, -5.145e-5
0.202, -5.103e-5
0.201, -5.049e-5
0.200, -4.986e-5
0.199, -4.911e-5
0.198, -4.825e-5
0.197, -4.727e-5
0.196, -4.620e-5
0.195, -4.504e-5
0.194, -4.380e-5
0.193, -4.249e-5
0.192, -4.116e-5
0.191, -3.979e-5
0.190, -3.842e-5
0.189, -3.707e-5
0.188, -3.576e-5
0.187, -3.449e-5
0.186, -3.327e-5
0.185, -3.210e-5
0.184, -3.098e-5
0.183, -2.995e-5
0.182, -2.897e-5
0.181, -2.803e-5
0.180, -2.716e-5
0.179, -2.634e-5
0.178, -2.557e-5
0.177, -2.484e-5
0.176, -2.414e-5
0.175, -2.348e-5
0.174, -2.286e-5
0.173, -2.227e-5
0.172, -2.172e-5
0.171, -2.120e-5
0.170, -2.068e-5
0.169, -2.020e-5
0.168, -1.975e-5
0.167, -1.932e-5
0.166, -1.890e-5
0.165, -1.850e-5
0.164, -1.812e-5
0.163, -1.777e-5
0.162, -1.742e-5
0.161, -1.708e-5
0.160, -1.676e-5
0.159, -1.644e-5
0.158, -1.614e-5
0.157, -1.586e-5
0.156, -1.559e-5
0.155, -1.532e-5
0.154, -1.507e-5
0.153, -1.483e-5
0.152, -1.458e-5
0.151, -1.435e-5
0.150, -1.412e-5
0.149, -1.391e-5
0.148, -1.371e-5
0.147, -1.351e-5
0.146, -1.331e-5
0.145, -1.312e-5
0.144, -1.293e-5
0.143, -1.275e-5
0.142, -1.258e-5
0.141, -1.241e-5
0.140, -1.225e-5
0.139, -1.210e-5
0.138, -1.194e-5
0.137, -1.179e-5
0.136, -1.165e-5
0.135, -1.151e-5
0.134, -1.137e-5
0.133, -1.123e-5
0.132, -1.111e-5
0.131, -1.098e-5
0.130, -1.085e-5
0.129, -1.072e-5
0.128, -1.061e-5
0.127, -1.049e-5
0.126, -1.038e-5
0.125, -1.026e-5
0.124, -1.015e-5
0.123, -1.004e-5
0.122, -9.939e-6
0.121, -9.840e-6
0.120, -9.738e-6
0.119, -9.638e-6
0.118, -9.544e-6
0.117, -9.453e-6
0.116, -9.363e-6
0.115, -9.271e-6
0.114, -9.179e-6
0.113, -9.092e-6
0.112, -9.012e-6
0.111, -8.929e-6
0.110, -8.851e-6
0.109, -8.772e-6
0.108, -8.691e-6
0.107, -8.612e-6
0.106, -8.536e-6
0.105, -8.460e-6
0.104, -8.387e-6
0.103, -8.314e-6
0.102, -8.244e-6
0.101, -8.175e-6
0.100, -8.107e-6
0.099, -8.041e-6
0.098, -7.973e-6
0.097, -7.909e-6
0.096, -7.850e-6
0.095, -7.787e-6
0.094, -7.724e-6
0.093, -7.663e-6
0.092, -7.607e-6
0.091, -7.554e-6
0.090, -7.498e-6
0.089, -7.440e-6
0.088, -7.387e-6
0.087, -7.335e-6
0.086, -7.278e-6
0.085, -7.227e-6
0.084, -7.174e-6
0.083, -7.122e-6
0.082, -7.075e-6
0.081, -7.022e-6
0.080, -6.972e-6
0.079, -6.926e-6
0.078, -6.881e-6
0.077, -6.839e-6
0.076, -6.798e-6
0.075, -6.754e-6
0.074, -6.711e-6
0.073, -6.671e-6
0.072, -6.631e-6
0.071, -6.591e-6
0.070, -6.552e-6
0.069, -6.510e-6
0.068, -6.472e-6
0.067, -6.432e-6
0.066, -6.390e-6
0.065, -6.348e-6
0.064, -6.311e-6
0.063, -6.275e-6
0.062, -6.234e-6
0.061, -6.200e-6
0.060, -6.167e-6
0.059, -6.128e-6
0.058, -6.093e-6
0.057, -6.058e-6
0.056, -6.022e-6
0.055, -5.987e-6
0.054, -5.959e-6
0.053, -5.927e-6
0.052, -5.895e-6
0.051, -5.867e-6
0.050, -5.838e-6
0.049, -5.805e-6
0.048, -5.772e-6
0.047, -5.738e-6
0.046, -5.704e-6
0.045, -5.673e-6
0.044, -5.647e-6
0.043, -5.617e-6
0.042, -5.587e-6
0.041, -5.557e-6
0.040, -5.530e-6
0.039, -5.501e-6
0.038, -5.472e-6
0.037, -5.442e-6
0.036, -5.408e-6
0.035, -5.383e-6
0.034, -5.360e-6
0.033, -5.333e-6
0.032, -5.306e-6
0.031, -5.283e-6
0.030, -5.257e-6
0.029, -5.236e-6
0.028, -5.211e-6
0.027, -5.186e-6
0.026, -5.161e-6
0.025, -5.135e-6
0.024, -5.110e-6
0.023, -5.088e-6
0.022, -5.067e-6
0.021, -5.045e-6
0.020, -5.025e-6
0.019, -5.007e-6
0.018, -4.984e-6
0.017, -4.961e-6
0.016, -4.939e-6
0.015, -4.916e-6
0.014, -4.894e-6
0.013, -4.871e-6
0.012, -4.852e-6
0.011, -4.839e-6
0.010, -4.823e-6
0.009, -4.798e-6
0.008, -4.776e-6
0.007, -4.756e-6
0.006, -4.736e-6
0.005, -4.719e-6
0.004, -4.696e-6
0.003, -4.677e-6
0.002, -4.658e-6
0.001, -4.642e-6
0.000, -4.559e-6
0.001, -4.332e-6
0.002, -4.208e-6
0.003, -4.130e-6
0.004, -4.071e-6
0.005, -4.019e-6
0.006, -3.965e-6
0.007, -3.914e-6
0.008, -3.865e-6
0.009, -3.819e-6
0.010, -3.773e-6
0.011, -3.724e-6
0.012, -3.682e-6
0.013, -3.643e-6
0.014, -3.602e-6
0.015, -3.559e-6
0.016, -3.523e-6
0.017, -3.485e-6
0.018, -3.448e-6
0.019, -3.414e-6
0.020, -3.373e-6
0.021, -3.340e-6
0.022, -3.303e-6
0.023, -3.270e-6
0.024, -3.242e-6
0.025, -3.207e-6
0.026, -3.176e-6
0.027, -3.142e-6
0.028, -3.111e-6
0.029, -3.080e-6
0.030, -3.051e-6
0.031, -3.025e-6
0.032, -2.996e-6
0.033, -2.966e-6
0.034, -2.941e-6
0.035, -2.915e-6
0.036, -2.888e-6
0.037, -2.859e-6
0.038, -2.836e-6
0.039, -2.808e-6
0.040, -2.781e-6
0.041, -2.758e-6
0.042, -2.734e-6
0.043, -2.713e-6
0.044, -2.689e-6
0.045, -2.669e-6
0.046, -2.644e-6
0.047, -2.617e-6
0.048, -2.595e-6
0.049, -2.571e-6
0.050, -2.547e-6
0.051, -2.527e-6
0.052, -2.505e-6
0.053, -2.486e-6
0.054, -2.465e-6
0.055, -2.444e-6
0.056, -2.426e-6
0.057, -2.407e-6
0.058, -2.388e-6
0.059, -2.367e-6
0.060, -2.346e-6
0.061, -2.325e-6
0.062, -2.305e-6
0.063, -2.287e-6
0.064, -2.272e-6
0.065, -2.257e-6
0.066, -2.236e-6
0.067, -2.216e-6
0.068, -2.194e-6
0.069, -2.176e-6
0.070, -2.158e-6
0.071, -2.139e-6
0.072, -2.120e-6
0.073, -2.100e-6
0.074, -2.083e-6
0.075, -2.066e-6
0.076, -2.047e-6
0.077, -2.027e-6
0.078, -2.008e-6
0.079, -1.991e-6
0.080, -1.973e-6
0.081, -1.954e-6
0.082, -1.937e-6
0.083, -1.920e-6
0.084, -1.902e-6
0.085, -1.886e-6
0.086, -1.868e-6
0.087, -1.850e-6
0.088, -1.832e-6
0.089, -1.815e-6
0.090, -1.797e-6
0.091, -1.781e-6
0.092, -1.764e-6
0.093, -1.746e-6
0.094, -1.728e-6
0.095, -1.712e-6
0.096, -1.695e-6
0.097, -1.679e-6
0.098, -1.665e-6
0.099, -1.648e-6
0.100, -1.633e-6
0.101, -1.616e-6
0.102, -1.597e-6
0.103, -1.580e-6
0.104, -1.565e-6
0.105, -1.549e-6
0.106, -1.532e-6
0.107, -1.516e-6
0.108, -1.502e-6
0.109, -1.484e-6
0.110, -1.466e-6
0.111, -1.453e-6
0.112, -1.435e-6
0.113, -1.419e-6
0.114, -1.404e-6
0.115, -1.386e-6
0.116, -1.368e-6
0.117, -1.354e-6
0.118, -1.337e-6
0.119, -1.320e-6
0.120, -1.305e-6
0.121, -1.288e-6
0.122, -1.270e-6
0.123, -1.253e-6
0.124, -1.237e-6
0.125, -1.221e-6
0.126, -1.204e-6
0.127, -1.188e-6
0.128, -1.172e-6
0.129, -1.155e-6
0.130, -1.139e-6
0.131, -1.122e-6
0.132, -1.104e-6
0.133, -1.087e-6
0.134, -1.069e-6
0.135, -1.051e-6
0.136, -1.035e-6
0.137, -1.018e-6
0.138, -9.999e-7
0.139, -9.821e-7
0.140, -9.643e-7
0.141, -9.467e-7
0.142, -9.299e-7
0.143, -9.108e-7
0.144, -8.910e-7
0.145, -8.700e-7
0.146, -8.521e-7
0.147, -8.361e-7
0.148, -8.146e-7
0.149, -7.959e-7
0.150, -7.765e-7
0.151, -7.561e-7
0.152, -7.375e-7
0.153, -7.167e-7
0.154, -6.964e-7
0.155, -6.763e-7
0.156, -6.557e-7
0.157, -6.382e-7
0.158, -6.158e-7
0.159, -5.937e-7
0.160, -5.724e-7
0.161, -5.499e-7
0.162, -5.272e-7
0.163, -5.069e-7
0.164, -4.822e-7
0.165, -4.615e-7
0.166, -4.366e-7
0.167, -4.120e-7
0.168, -3.881e-7
0.169, -3.636e-7
0.170, -3.376e-7
0.171, -3.127e-7
0.172, -2.848e-7
0.173, -2.564e-7
0.174, -2.289e-7
0.175, -2.019e-7
0.176, -1.720e-7
0.177, -1.403e-7
0.178, -1.088e-7
0.179, -7.424e-8
0.180, -3.925e-8
0.181, -4.345e-9
0.182, 3.380e-8
0.183, 7.302e-8
0.184, 1.140e-7
0.185, 1.569e-7
0.186, 1.994e-7
0.187, 2.471e-7
0.188, 2.966e-7
0.189, 3.493e-7
0.190, 4.057e-7
0.191, 4.621e-7
0.192, 5.237e-7
0.193, 5.916e-7
0.194, 6.624e-7
0.195, 7.369e-7
0.196, 8.167e-7
0.197, 9.062e-7
0.198, 1.006e-6
0.199, 1.114e-6
0.200, 1.228e-6
0.201, 1.355e-6
0.202, 1.493e-6
0.203, 1.650e-6
0.204, 1.821e-6
0.205, 2.012e-6
0.206, 2.223e-6
0.207, 2.460e-6
0.208, 2.725e-6
0.209, 3.017e-6
0.210, 3.341e-6
0.211, 3.698e-6
0.212, 4.103e-6
0.213, 4.547e-6
0.214, 5.043e-6
0.215, 5.581e-6
0.216, 6.184e-6
0.217, 6.845e-6
0.218, 7.576e-6
0.219, 8.369e-6
0.220, 9.227e-6
0.221, 1.016e-5
0.222, 1.116e-5
0.223, 1.224e-5
0.224, 1.339e-5
0.225, 1.462e-5
0.226, 1.592e-5
0.227, 1.728e-5
0.228, 1.872e-5
0.229, 2.021e-5
0.230, 2.178e-5
0.231, 2.341e-5
0.232, 2.509e-5
0.233, 2.683e-5
0.234, 2.862e-5
0.235, 3.046e-5
0.236, 3.234e-5
0.237, 3.427e-5
0.238, 3.624e-5
0.239, 3.823e-5
0.240, 4.028e-5
0.241, 4.234e-5
0.242, 4.442e-5
0.243, 4.654e-5
0.244, 4.868e-5
0.245, 5.081e-5
0.246, 5.296e-5
0.247, 5.512e-5
0.248, 5.727e-5
0.249, 5.943e-5
0.250, 6.157e-5
0.251, 6.372e-5
0.252, 6.584e-5
0.253, 6.793e-5
0.254, 7.000e-5
0.255, 7.203e-5
0.256, 7.403e-5
0.257, 7.597e-5
0.258, 7.785e-5
0.259, 7.966e-5
0.260, 8.137e-5
0.261, 8.298e-5
0.262, 8.445e-5
0.263, 8.582e-5
0.264, 8.707e-5
0.265, 8.818e-5
0.266, 8.911e-5
0.267, 8.987e-5
0.268, 9.043e-5
0.269, 9.082e-5
0.270, 9.101e-5
0.271, 9.097e-5
0.272, 9.075e-5
0.273, 9.030e-5
0.274, 8.967e-5
0.275, 8.883e-5
0.276, 8.780e-5
0.277, 8.660e-5
0.278, 8.523e-5
0.279, 8.373e-5
0.280, 8.215e-5
0.281, 8.049e-5
0.282, 7.876e-5
0.283, 7.701e-5
0.284, 7.524e-5
0.285, 7.349e-5
0.286, 7.175e-5
0.287, 6.999e-5
0.288, 6.829e-5
0.289, 6.661e-5
0.290, 6.497e-5
0.291, 6.338e-5
0.292, 6.181e-5
0.293, 6.031e-5
0.294, 5.885e-5
0.295, 5.743e-5
0.296, 5.608e-5
0.297, 5.475e-5
0.298, 5.346e-5
0.299, 5.222e-5
0.300, 5.100e-5
0.301, 4.985e-5
0.302, 4.871e-5
0.303, 4.759e-5
0.304, 4.651e-5
0.305, 4.544e-5
0.306, 4.442e-5
0.307, 4.343e-5
0.308, 4.247e-5
0.309, 4.153e-5
0.310, 4.062e-5
0.311, 3.973e-5
0.312, 3.888e-5
0.313, 3.804e-5
0.314, 3.723e-5
0.315, 3.646e-5
0.316, 3.569e-5
0.317, 3.495e-5
0.318, 3.423e-5
0.319, 3.354e-5
0.320, 3.289e-5
0.321, 3.226e-5
0.322, 3.164e-5
0.323, 3.104e-5
0.324, 3.046e-5
0.325, 2.992e-5
0.326, 2.939e-5
0.327, 2.888e-5
0.328, 2.840e-5
0.329, 2.792e-5
0.330, 2.745e-5
0.331, 2.700e-5
0.332, 2.657e-5
0.333, 2.617e-5
0.334, 2.577e-5
0.335, 2.537e-5
0.336, 2.500e-5
0.337, 2.463e-5
0.338, 2.426e-5
0.339, 2.393e-5
0.340, 2.360e-5
0.341, 2.327e-5
0.342, 2.295e-5
0.343, 2.262e-5
0.344, 2.233e-5
0.345, 2.204e-5
0.346, 2.176e-5
0.347, 2.148e-5
0.348, 2.120e-5
0.349, 2.095e-5
0.350, 2.070e-5
0.351, 2.045e-5
0.352, 2.022e-5
0.353, 2.001e-5
0.354, 1.978e-5
0.355, 1.956e-5
0.356, 1.935e-5
0.357, 1.915e-5
0.358, 1.897e-5
0.359, 1.879e-5
0.360, 1.861e-5
0.361, 1.844e-5
0.362, 1.826e-5
0.363, 1.810e-5
0.364, 1.794e-5
0.365, 1.778e-5
0.366, 1.764e-5
0.367, 1.749e-5
0.368, 1.735e-5
0.369, 1.722e-5
0.370, 1.708e-5
0.371, 1.697e-5
0.372, 1.685e-5
0.373, 1.673e-5
0.374, 1.661e-5
0.375, 1.649e-5
0.376, 1.639e-5
0.377, 1.628e-5
0.378, 1.619e-5
0.379, 1.610e-5
0.380, 1.600e-5
0.381, 1.591e-5
0.382, 1.582e-5
0.383, 1.573e-5
0.384, 1.566e-5
0.385, 1.558e-5
0.386, 1.550e-5
0.387, 1.544e-5
0.388, 1.538e-5
0.389, 1.530e-5
0.390, 1.523e-5
0.391, 1.516e-5
0.392, 1.509e-5
0.393, 1.502e-5
0.394, 1.495e-5
0.395, 1.490e-5
0.396, 1.484e-5
0.397, 1.479e-5
0.398, 1.474e-5
0.399, 1.468e-5
0.400, 1.463e-5
0.401, 1.458e-5
0.402, 1.452e-5
0.403, 1.449e-5
0.404, 1.445e-5
0.405, 1.441e-5
0.406, 1.438e-5
0.407, 1.433e-5
0.408, 1.430e-5
0.409, 1.426e-5
0.410, 1.423e-5
0.411, 1.420e-5
0.412, 1.417e-5
0.413, 1.414e-5
0.414, 1.412e-5
0.415, 1.408e-5
0.416, 1.406e-5
0.417, 1.404e-5
0.418, 1.400e-5
0.419, 1.398e-5
0.420, 1.396e-5
0.421, 1.394e-5
0.422, 1.392e-5
0.423, 1.391e-5
0.424, 1.390e-5
0.425, 1.388e-5
0.426, 1.386e-5
0.427, 1.385e-5
0.428, 1.383e-5
0.429, 1.383e-5
0.430, 1.383e-5
0.431, 1.381e-5
0.432, 1.381e-5
0.433, 1.381e-5
0.434, 1.380e-5
0.435, 1.381e-5
0.436, 1.380e-5
0.437, 1.379e-5
0.438, 1.379e-5
0.439, 1.379e-5
0.440, 1.380e-5
0.441, 1.381e-5
0.442, 1.381e-5
0.443, 1.382e-5
0.444, 1.382e-5
0.445, 1.383e-5
0.446, 1.384e-5
0.447, 1.384e-5
0.448, 1.387e-5
0.449, 1.388e-5
0.450, 1.388e-5
0.451, 1.390e-5
0.452, 1.392e-5
0.453, 1.394e-5
0.454, 1.396e-5
0.455, 1.399e-5
0.456, 1.401e-5
0.457, 1.403e-5
0.458, 1.405e-5
0.459, 1.407e-5
0.460, 1.408e-5
0.461, 1.412e-5
0.462, 1.415e-5
0.463, 1.416e-5
0.464, 1.419e-5
0.465, 1.422e-5
0.466, 1.423e-5
0.467, 1.427e-5
0.468, 1.430e-5
0.469, 1.432e-5
0.470, 1.435e-5
0.471, 1.438e-5
0.472, 1.441e-5
0.473, 1.445e-5
0.474, 1.449e-5
0.475, 1.453e-5
0.476, 1.456e-5
0.477, 1.459e-5
0.478, 1.464e-5
0.479, 1.467e-5
0.480, 1.472e-5
0.481, 1.476e-5
0.482, 1.479e-5
0.483, 1.484e-5
0.484, 1.487e-5
0.485, 1.491e-5
0.486, 1.496e-5
0.487, 1.500e-5
0.488, 1.505e-5
0.489, 1.509e-5
0.490, 1.514e-5
0.491, 1.520e-5
0.492, 1.523e-5
0.493, 1.528e-5
0.494, 1.533e-5
0.495, 1.537e-5
0.496, 1.541e-5
0.497, 1.546e-5
0.498, 1.551e-5
0.499, 1.557e-5
0.500, 1.562e-5
0.501, 1.567e-5
0.502, 1.572e-5
0.503, 1.577e-5
0.504, 1.583e-5
0.505, 1.589e-5
0.506, 1.595e-5
0.507, 1.602e-5
0.508, 1.608e-5
0.509, 1.615e-5
0.510, 1.623e-5
0.511, 1.629e-5
0.512, 1.639e-5
0.513, 1.648e-5
0.514, 1.654e-5
0.515, 1.661e-5
0.516, 1.668e-5
0.517, 1.675e-5
0.518, 1.684e-5
0.519, 1.691e-5
0.520, 1.700e-5
0.521, 1.708e-5
0.522, 1.716e-5
0.523, 1.726e-5
0.524, 1.735e-5
0.525, 1.745e-5
0.526, 1.755e-5
0.527, 1.763e-5
0.528, 1.773e-5
0.529, 1.783e-5
0.530, 1.791e-5
0.531, 1.802e-5
0.532, 1.814e-5
0.533, 1.824e-5
0.534, 1.835e-5
0.535, 1.846e-5
0.536, 1.858e-5
0.537, 1.870e-5
0.538, 1.883e-5
0.539, 1.895e-5
0.540, 1.907e-5
0.541, 1.920e-5
0.542, 1.933e-5
0.543, 1.945e-5
0.544, 1.959e-5
0.545, 1.973e-5
0.546, 1.987e-5
0.547, 2.002e-5
0.548, 2.017e-5
0.549, 2.032e-5
0.550, 2.047e-5
0.551, 2.062e-5
0.552, 2.077e-5
0.553, 2.092e-5
0.554, 2.107e-5
0.555, 2.123e-5
0.556, 2.138e-5
0.557, 2.155e-5
0.558, 2.173e-5
0.559, 2.188e-5
0.560, 2.206e-5
0.561, 2.223e-5
0.562, 2.240e-5
0.563, 2.257e-5
0.564, 2.277e-5
0.565, 2.295e-5
0.566, 2.312e-5
0.567, 2.329e-5
0.568, 2.347e-5
0.569, 2.364e-5
0.570, 2.382e-5
0.571, 2.402e-5
0.572, 2.419e-5
0.573, 2.438e-5
0.574, 2.457e-5
0.575, 2.476e-5
0.576, 2.494e-5
0.577, 2.512e-5
0.578, 2.530e-5
0.579, 2.550e-5
0.580, 2.567e-5
0.581, 2.585e-5
0.582, 2.604e-5
0.583, 2.623e-5
0.584, 2.642e-5
0.585, 2.660e-5
0.586, 2.677e-5
0.587, 2.696e-5
0.588, 2.714e-5
0.589, 2.733e-5
0.590, 2.753e-5
0.591, 2.770e-5
0.592, 2.788e-5
0.593, 2.807e-5
0.594, 2.824e-5
0.595, 2.844e-5
0.596, 2.862e-5
0.597, 2.881e-5
0.598, 2.900e-5
0.599, 2.917e-5
0.600, 2.935e-5
0.601, 2.952e-5
0.602, 2.971e-5
0.603, 2.991e-5
0.604, 3.008e-5
0.605, 3.026e-5
0.606, 3.046e-5
0.607, 3.065e-5
0.608, 3.084e-5
0.609, 3.103e-5
0.610, 3.122e-5
0.611, 3.142e-5
0.612, 3.161e-5
0.613, 3.181e-5
0.614, 3.200e-5
0.615, 3.221e-5
0.616, 3.242e-5
0.617, 3.262e-5
0.618, 3.282e-5
0.619, 3.304e-5
0.620, 3.325e-5
0.621, 3.347e-5
0.622, 3.370e-5
0.623, 3.392e-5
0.624, 3.415e-5
0.625, 3.438e-5
0.626, 3.462e-5
0.627, 3.486e-5
0.628, 3.510e-5
0.629, 3.534e-5
0.630, 3.560e-5
0.631, 3.588e-5
0.632, 3.615e-5
0.633, 3.641e-5
0.634, 3.669e-5
0.635, 3.698e-5
0.636, 3.726e-5
0.637, 3.754e-5
0.638, 3.785e-5
0.639, 3.815e-5
0.640, 3.846e-5
0.641, 3.879e-5
0.642, 3.912e-5
0.643, 3.945e-5
0.644, 3.979e-5
0.645, 4.013e-5
0.646, 4.048e-5
0.647, 4.084e-5
0.648, 4.123e-5
0.649, 4.161e-5
0.650, 4.198e-5
0.651, 4.237e-5
0.652, 4.277e-5
0.653, 4.321e-5
0.654, 4.363e-5
0.655, 4.406e-5
0.656, 4.451e-5
0.657, 4.495e-5
0.658, 4.540e-5
0.659, 4.588e-5
0.660, 4.637e-5
0.661, 4.688e-5
0.662, 4.740e-5
0.663, 4.792e-5
0.664, 4.846e-5
0.665, 4.901e-5
0.666, 4.961e-5
0.667, 5.020e-5
0.668, 5.076e-5
0.669, 5.136e-5
0.670, 5.197e-5
0.671, 5.260e-5
0.672, 5.324e-5
0.673, 5.390e-5
0.674, 5.457e-5
0.675, 5.527e-5
0.676, 5.598e-5
0.677, 5.670e-5
0.678, 5.745e-5
0.679, 5.822e-5
0.680, 5.899e-5
0.681, 5.979e-5
0.682, 6.059e-5
0.683, 6.142e-5
0.684, 6.226e-5
0.685, 6.315e-5
0.686, 6.406e-5
0.687, 6.495e-5
0.688, 6.586e-5
0.689, 6.679e-5
0.690, 6.773e-5
0.691, 6.872e-5
0.692, 6.974e-5
0.693, 7.076e-5
0.694, 7.182e-5
0.695, 7.287e-5
0.696, 7.394e-5
0.697, 7.505e-5
0.698, 7.618e-5
0.699, 7.735e-5
0.700, 7.852e-5
0.701, 7.970e-5
0.702, 8.092e-5
0.703, 8.216e-5
0.704, 8.344e-5
0.705, 8.472e-5
0.706, 8.604e-5
0.707, 8.738e-5
0.708, 8.873e-5
0.709, 9.009e-5
0.710, 9.149e-5
0.711, 9.291e-5
0.712, 9.437e-5
0.713, 9.584e-5
0.714, 9.734e-5
0.715, 9.884e-5
0.716, 1.004e-4
0.717, 1.020e-4
0.718, 1.036e-4
0.719, 1.052e-4
0.720, 1.068e-4
0.721, 1.085e-4
0.722, 1.102e-4
0.723, 1.119e-4
0.724, 1.136e-4
0.725, 1.154e-4
0.726, 1.171e-4
0.727, 1.189e-4
0.728, 1.207e-4
0.729, 1.226e-4
0.730, 1.245e-4
0.731, 1.264e-4
0.732, 1.283e-4
0.733, 1.302e-4
0.734, 1.322e-4
0.735, 1.342e-4
0.736, 1.362e-4
0.737, 1.382e-4
0.738, 1.403e-4
0.739, 1.423e-4
0.740, 1.444e-4
0.741, 1.465e-4
0.742, 1.487e-4
0.743, 1.508e-4
0.744, 1.531e-4
0.745, 1.553e-4
0.746, 1.575e-4
0.747, 1.597e-4
0.748, 1.620e-4
0.749, 1.643e-4
0.750, 1.667e-4
0.751, 1.690e-4
0.752, 1.714e-4
0.753, 1.737e-4
0.754, 1.761e-4
0.755, 1.786e-4
0.756, 1.810e-4
0.757, 1.835e-4
0.758, 1.860e-4
0.759, 1.885e-4
0.760, 1.910e-4
0.761, 1.935e-4
0.762, 1.961e-4
0.763, 1.987e-4
0.764, 2.013e-4
0.765, 2.039e-4
0.766, 2.066e-4
0.767, 2.092e-4
0.768, 2.119e-4
0.769, 2.146e-4
0.770, 2.173e-4
0.771, 2.200e-4
0.772, 2.228e-4
0.773, 2.256e-4
0.774, 2.283e-4
0.775, 2.311e-4
0.776, 2.340e-4
0.777, 2.368e-4
0.778, 2.396e-4
0.779, 2.425e-4
0.780, 2.454e-4
0.781, 2.483e-4
0.782, 2.512e-4
0.783, 2.541e-4
0.784, 2.572e-4
0.785, 2.602e-4
0.786, 2.631e-4
0.787, 2.661e-4
0.788, 2.691e-4
0.789, 2.722e-4
0.790, 2.753e-4
0.791, 2.784e-4
0.792, 2.815e-4
0.793, 2.846e-4
0.794, 2.877e-4
0.795, 2.908e-4
0.796, 2.939e-4
0.797, 2.971e-4
0.798, 3.002e-4
0.799, 3.034e-4
0.800, 3.061e-4
0.799, 3.037e-4
0.798, 2.985e-4
0.797, 2.934e-4
0.796, 2.884e-4
0.795, 2.836e-4
0.794, 2.790e-4
0.793, 2.743e-4
0.792, 2.696e-4
0.791, 2.651e-4
0.790, 2.607e-4
0.789, 2.562e-4
0.788, 2.519e-4
0.787, 2.475e-4
0.786, 2.433e-4
0.785, 2.391e-4
0.784, 2.350e-4
0.783, 2.308e-4
0.782, 2.267e-4
0.781, 2.227e-4
0.780, 2.188e-4
0.779, 2.149e-4
0.778, 2.111e-4
0.777, 2.072e-4
0.776, 2.035e-4
0.775, 1.998e-4
0.774, 1.962e-4
0.773, 1.925e-4
0.772, 1.889e-4
0.771, 1.853e-4
0.770, 1.818e-4
0.769, 1.783e-4
0.768, 1.749e-4
0.767, 1.715e-4
0.766, 1.681e-4
0.765, 1.648e-4
0.764, 1.615e-4
0.763, 1.583e-4
0.762, 1.551e-4
0.761, 1.519e-4
0.760, 1.488e-4
0.759, 1.458e-4
0.758, 1.428e-4
0.757, 1.397e-4
0.756, 1.368e-4
0.755, 1.339e-4
0.754, 1.310e-4
0.753, 1.282e-4
0.752, 1.254e-4
0.751, 1.226e-4
0.750, 1.199e-4
0.749, 1.172e-4
0.748, 1.146e-4
0.747, 1.120e-4
0.746, 1.094e-4
0.745, 1.069e-4
0.744, 1.044e-4
0.743, 1.019e-4
0.742, 9.947e-5
0.741, 9.706e-5
0.740, 9.470e-5
0.739, 9.235e-5
0.738, 9.007e-5
0.737, 8.784e-5
0.736, 8.563e-5
0.735, 8.346e-5
0.734, 8.132e-5
0.733, 7.923e-5
0.732, 7.716e-5
0.731, 7.512e-5
0.730, 7.313e-5
0.729, 7.117e-5
0.728, 6.922e-5
0.727, 6.733e-5
0.726, 6.547e-5
0.725, 6.365e-5
0.724, 6.185e-5
0.723, 6.008e-5
0.722, 5.835e-5
0.721, 5.665e-5
0.720, 5.498e-5
0.719, 5.336e-5
0.718, 5.178e-5
0.717, 5.021e-5
0.716, 4.865e-5
0.715, 4.714e-5
0.714, 4.567e-5
0.713, 4.424e-5
0.712, 4.283e-5
0.711, 4.145e-5
0.710, 4.010e-5
0.709, 3.877e-5
0.708, 3.748e-5
0.707, 3.622e-5
0.706, 3.499e-5
0.705, 3.378e-5
0.704, 3.259e-5
0.703, 3.143e-5
0.702, 3.030e-5
0.701, 2.920e-5
0.700, 2.813e-5
0.699, 2.707e-5
0.698, 2.604e-5
0.697, 2.504e-5
0.696, 2.405e-5
0.695, 2.309e-5
0.694, 2.215e-5
0.693, 2.123e-5
0.692, 2.034e-5
0.691, 1.947e-5
0.690, 1.862e-5
0.689, 1.780e-5
0.688, 1.700e-5
0.687, 1.623e-5
0.686, 1.547e-5
0.685, 1.470e-5
0.684, 1.397e-5
0.683, 1.326e-5
0.682, 1.257e-5
0.681, 1.190e-5
0.680, 1.125e-5
0.679, 1.061e-5
0.678, 9.981e-6
0.677, 9.367e-6
0.676, 8.782e-6
0.675, 8.201e-6
0.674, 7.634e-6
0.673, 7.092e-6
0.672, 6.545e-6
0.671, 6.029e-6
0.670, 5.531e-6
0.669, 5.037e-6
0.668, 4.561e-6
0.667, 4.091e-6
0.666, 3.632e-6
0.665, 3.184e-6
0.664, 2.750e-6
0.663, 2.339e-6
0.662, 1.933e-6
0.661, 1.532e-6
0.660, 1.155e-6
0.659, 7.731e-7
0.658, 4.063e-7
0.657, 5.730e-8
0.656, -2.973e-7
0.655, -6.390e-7
0.654, -9.764e-7
0.653, -1.309e-6
0.652, -1.623e-6
0.651, -1.933e-6
0.650, -2.233e-6
0.649, -2.515e-6
0.648, -2.799e-6
0.647, -3.075e-6
0.646, -3.352e-6
0.645, -3.618e-6
0.644, -3.863e-6
0.643, -4.121e-6
0.642, -4.361e-6
0.641, -4.599e-6
0.640, -4.840e-6
0.639, -5.064e-6
0.638, -5.278e-6
0.637, -5.499e-6
0.636, -5.711e-6
0.635, -5.914e-6
0.634, -6.112e-6
0.633, -6.309e-6
0.632, -6.506e-6
0.631, -6.683e-6
0.630, -6.864e-6
0.629, -7.045e-6
0.628, -7.212e-6
0.627, -7.393e-6
0.626, -7.561e-6
0.625, -7.711e-6
0.624, -7.875e-6
0.623, -8.020e-6
0.622, -8.170e-6
0.621, -8.331e-6
0.620, -8.471e-6
0.619, -8.608e-6
0.618, -8.740e-6
0.617, -8.869e-6
0.616, -9.008e-6
0.615, -9.130e-6
0.614, -9.267e-6
0.613, -9.393e-6
0.612, -9.496e-6
0.611, -9.611e-6
0.610, -9.721e-6
0.609, -9.812e-6
0.608, -9.923e-6
0.607, -1.003e-5
0.606, -1.012e-5
0.605, -1.022e-5
0.604, -1.030e-5
0.603, -1.039e-5
0.602, -1.048e-5
0.601, -1.056e-5
0.600, -1.065e-5
0.599, -1.071e-5
0.598, -1.079e-5
0.597, -1.087e-5
0.596, -1.093e-5
0.595, -1.100e-5
0.594, -1.107e-5
0.593, -1.113e-5
0.592, -1.119e-5
0.591, -1.123e-5
0.590, -1.129e-5
0.589, -1.134e-5
0.588, -1.138e-5
0.587, -1.143e-5
0.586, -1.148e-5
0.585, -1.151e-5
0.584, -1.155e-5
0.583, -1.159e-5
0.582, -1.162e-5
0.581, -1.166e-5
0.580, -1.169e-5
0.579, -1.172e-5
0.578, -1.174e-5
0.577, -1.176e-5
0.576, -1.179e-5
0.575, -1.181e-5
0.574, -1.182e-5
0.573, -1.183e-5
0.572, -1.183e-5
0.571, -1.184e-5
0.570, -1.185e-5
0.569, -1.186e-5
0.568, -1.187e-5
0.567, -1.187e-5
0.566, -1.187e-5
0.565, -1.187e-5
0.564, -1.186e-5
0.563, -1.188e-5
0.562, -1.188e-5
0.561, -1.186e-5
0.560, -1.185e-5
0.559, -1.183e-5
0.558, -1.182e-5
0.557, -1.181e-5
0.556, -1.179e-5
0.555, -1.178e-5
0.554, -1.177e-5
0.553, -1.175e-5
0.552, -1.173e-5
0.551, -1.171e-5
0.550, -1.170e-5
0.549, -1.168e-5
0.548, -1.165e-5
0.547, -1.163e-5
0.546, -1.161e-5
0.545, -1.158e-5
0.544, -1.157e-5
0.543, -1.154e-5
0.542, -1.152e-5
0.541, -1.149e-5
0.540, -1.146e-5
0.539, -1.144e-5
0.538, -1.141e-5
0.537, -1.138e-5
0.536, -1.136e-5
0.535, -1.133e-5
0.534, -1.130e-5
0.533, -1.128e-5
0.532, -1.124e-5
0.531, -1.122e-5
0.530, -1.120e-5
0.529, -1.116e-5
0.528, -1.113e-5
0.527, -1.110e-5
0.526, -1.107e-5
0.525, -1.104e-5
0.524, -1.101e-5
0.523, -1.098e-5
0.522, -1.095e-5
0.521, -1.092e-5
0.520, -1.089e-5
0.519, -1.086e-5
0.518, -1.083e-5
0.517, -1.080e-5
0.516, -1.076e-5
0.515, -1.072e-5
0.514, -1.069e-5
0.513, -1.066e-5
0.512, -1.066e-5
0.511, -1.065e-5
0.510, -1.060e-5
0.509, -1.056e-5
0.508, -1.052e-5
0.507, -1.049e-5
0.506, -1.046e-5
0.505, -1.044e-5
0.504, -1.041e-5
0.503, -1.037e-5
0.502, -1.034e-5
0.501, -1.032e-5
0.500, -1.029e-5
0.499, -1.027e-5
0.498, -1.025e-5
0.497, -1.022e-5
0.496, -1.020e-5
0.495, -1.017e-5
0.494, -1.014e-5
0.493, -1.012e-5
0.492, -1.009e-5
0.491, -1.007e-5
0.490, -1.004e-5
0.489, -1.002e-5
0.488, -9.997e-6
0.487, -9.973e-6
0.486, -9.951e-6
0.485, -9.934e-6
0.484, -9.903e-6
0.483, -9.886e-6
0.482, -9.868e-6
0.481, -9.841e-6
0.480, -9.831e-6
0.479, -9.818e-6
0.478, -9.797e-6
0.477, -9.786e-6
0.476, -9.759e-6
0.475, -9.749e-6
0.474, -9.736e-6
0.473, -9.722e-6
0.472, -9.713e-6
0.471, -9.692e-6
0.470, -9.674e-6
0.469, -9.663e-6
0.468, -9.638e-6
0.467, -9.633e-6
0.466, -9.623e-6
0.465, -9.605e-6
0.464, -9.600e-6
0.463, -9.584e-6
0.462, -9.571e-6
0.461, -9.575e-6
0.460, -9.572e-6
0.459, -9.564e-6
0.458, -9.550e-6
0.457, -9.533e-6
0.456, -9.529e-6
0.455, -9.528e-6
0.454, -9.527e-6
0.453, -9.530e-6
0.452, -9.514e-6
0.451, -9.507e-6
0.450, -9.503e-6
0.449, -9.497e-6
0.448, -9.497e-6
0.447, -9.496e-6
0.446, -9.494e-6
0.445, -9.495e-6
0.444, -9.484e-6
0.443, -9.478e-6
0.442, -9.479e-6
0.441, -9.479e-6
0.440, -9.487e-6
0.439, -9.486e-6
0.438, -9.483e-6
0.437, -9.491e-6
0.436, -9.489e-6
0.435, -9.494e-6
0.434, -9.493e-6
0.433, -9.487e-6
0.432, -9.497e-6
0.431, -9.502e-6
0.430, -9.501e-6
0.429, -9.513e-6
0.428, -9.516e-6
0.427, -9.521e-6
0.426, -9.524e-6
0.425, -9.528e-6
0.424, -9.541e-6
0.423, -9.548e-6
0.422, -9.559e-6
0.421, -9.574e-6
0.420, -9.579e-6
0.419, -9.601e-6
0.418, -9.609e-6
0.417, -9.609e-6
0.416, -9.630e-6
0.415, -9.646e-6
0.414, -9.656e-6
0.413, -9.674e-6
0.412, -9.683e-6
0.411, -9.705e-6
0.410, -9.727e-6
0.409, -9.747e-6
0.408, -9.763e-6
0.407, -9.772e-6
0.406, -9.783e-6
0.405, -9.800e-6
0.404, -9.813e-6
0.403, -9.847e-6
0.402, -9.871e-6
0.401, -9.877e-6
0.400, -9.903e-6
0.399, -9.920e-6
0.398, -9.939e-6
0.397, -9.964e-6
0.396, -9.982e-6
0.395, -1.001e-5
0.394, -1.003e-5
0.393, -1.005e-5
0.392, -1.007e-5
0.391, -1.010e-5
0.390, -1.013e-5
0.389, -1.018e-5
0.388, -1.020e-5
0.387, -1.022e-5
0.386, -1.025e-5
0.385, -1.027e-5
0.384, -1.030e-5
0.383, -1.033e-5
0.382, -1.036e-5
0.381, -1.040e-5
0.380, -1.042e-5
0.379, -1.045e-5
0.378, -1.048e-5
0.377, -1.052e-5
0.376, -1.056e-5
0.375, -1.059e-5
0.374, -1.063e-5
0.373, -1.067e-5
0.372, -1.070e-5
0.371, -1.074e-5
0.370, -1.078e-5
0.369, -1.081e-5
0.368, -1.086e-5
0.367, -1.090e-5
0.366, -1.093e-5
0.365, -1.098e-5
0.364, -1.101e-5
0.363, -1.106e-5
0.362, -1.110e-5
0.361, -1.114e-5
0.360, -1.119e-5
0.359, -1.124e-5
0.358, -1.130e-5
0.357, -1.135e-5
0.356, -1.139e-5
0.355, -1.145e-5
0.354, -1.150e-5
0.353, -1.154e-5
0.352, -1.160e-5
0.351, -1.167e-5
0.350, -1.171e-5
0.349, -1.177e-5
0.348, -1.183e-5
0.347, -1.189e-5
0.346, -1.195e-5
0.345, -1.201e-5
0.344, -1.208e-5
0.343, -1.213e-5
0.342, -1.220e-5
0.341, -1.226e-5
0.340, -1.231e-5
0.339, -1.238e-5
0.338, -1.245e-5
0.337, -1.252e-5
0.336, -1.259e-5
0.335, -1.267e-5
0.334, -1.274e-5
0.333, -1.282e-5
0.332, -1.288e-5
0.331, -1.296e-5
0.330, -1.304e-5
0.329, -1.312e-5
0.328, -1.321e-5
0.327, -1.328e-5
0.326, -1.336e-5
0.325, -1.345e-5
0.324, -1.354e-5
0.323, -1.363e-5
0.322, -1.372e-5
0.321, -1.381e-5
0.320, -1.391e-5
0.319, -1.402e-5
0.318, -1.410e-5
0.317, -1.420e-5
0.316, -1.430e-5
0.315, -1.440e-5
0.314, -1.450e-5
0.313, -1.461e-5
0.312, -1.473e-5
0.311, -1.483e-5
0.310, -1.494e-5
0.309, -1.505e-5
0.308, -1.516e-5
0.307, -1.529e-5
0.306, -1.543e-5
0.305, -1.554e-5
0.304, -1.566e-5
0.303, -1.578e-5
0.302, -1.590e-5
0.301, -1.603e-5
0.300, -1.616e-5
0.299, -1.629e-5
0.298, -1.642e-5
0.297, -1.656e-5
0.296, -1.671e-5
0.295, -1.684e-5
0.294, -1.700e-5
0.293, -1.715e-5
0.292, -1.730e-5
0.291, -1.746e-5
0.290, -1.762e-5
0.289, -1.777e-5
0.288, -1.793e-5
0.287, -1.809e-5
0.286, -1.825e-5
0.285, -1.842e-5
0.284, -1.858e-5
0.283, -1.875e-5
0.282, -1.893e-5
0.281, -1.910e-5
0.280, -1.928e-5
0.279, -1.946e-5
0.278, -1.964e-5
0.277, -1.983e-5
0.276, -2.002e-5
0.275, -2.023e-5
0.274, -2.043e-5
0.273, -2.063e-5
0.272, -2.084e-5
0.271, -2.104e-5
0.270, -2.125e-5
0.269, -2.146e-5
0.268, -2.168e-5
0.267, -2.190e-5
0.266, -2.213e-5
0.265, -2.235e-5
0.264, -2.258e-5
0.263, -2.282e-5
0.262, -2.306e-5
0.261, -2.330e-5
0.260, -2.353e-5
0.259, -2.378e-5
0.258, -2.402e-5
0.257, -2.426e-5
0.256, -2.454e-5
0.255, -2.480e-5
0.254, -2.506e-5
0.253, -2.532e-5
0.252, -2.558e-5
0.251, -2.584e-5
0.250, -2.611e-5
0.249, -2.638e-5
0.248, -2.667e-5
0.247, -2.694e-5
0.246, -2.722e-5
0.245, -2.749e-5
0.244, -2.774e-5
0.243, -2.802e-5
0.242, -2.830e-5
0.241, -2.858e-5
0.240, -2.885e-5
0.239, -2.911e-5
0.238, -2.938e-5
0.237, -2.966e-5
0.236, -2.992e-5
0.235, -3.018e-5
0.234, -3.044e-5
0.233, -3.069e-5
0.232, -3.094e-5
0.231, -3.118e-5
0.230, -3.141e-5
0.229, -3.164e-5
0.228, -3.184e-5
0.227, -3.205e-5
0.226, -3.223e-5
0.225, -3.241e-5
0.224, -3.257e-5
0.223, -3.272e-5
0.222, -3.285e-5
0.221, -3.296e-5
0.220, -3.304e-5
0.219, -3.311e-5
0.218, -3.315e-5
0.217, -3.317e-5
0.216, -3.317e-5
0.215, -3.314e-5
0.214, -3.308e-5
0.213, -3.299e-5
0.212, -3.288e-5
0.211, -3.274e-5
0.210, -3.256e-5
0.209, -3.232e-5
0.208, -3.207e-5
0.207, -3.179e-5
0.206, -3.148e-5
0.205, -3.115e-5
0.204, -3.079e-5
0.203, -3.040e-5
0.202, -2.999e-5
0.201, -2.955e-5
0.200, -2.911e-5
0.199, -2.863e-5
0.198, -2.814e-5
0.197, -2.766e-5
0.196, -2.717e-5
0.195, -2.668e-5
0.194, -2.618e-5
0.193, -2.569e-5
0.192, -2.520e-5
0.191, -2.474e-5
0.190, -2.426e-5
0.189, -2.380e-5
0.188, -2.336e-5
0.187, -2.293e-5
0.186, -2.250e-5
0.185, -2.209e-5
0.184, -2.170e-5
0.183, -2.130e-5
0.182, -2.093e-5
0.181, -2.056e-5
0.180, -2.020e-5
0.179, -1.986e-5
0.178, -1.953e-5
0.177, -1.920e-5
0.176, -1.889e-5
0.175, -1.859e-5
0.174, -1.830e-5
0.173, -1.802e-5
0.172, -1.773e-5
0.171, -1.745e-5
0.170, -1.719e-5
0.169, -1.693e-5
0.168, -1.669e-5
0.167, -1.646e-5
0.166, -1.622e-5
0.165, -1.600e-5
0.164, -1.578e-5
0.163, -1.556e-5
0.162, -1.536e-5
0.161, -1.515e-5
0.160, -1.496e-5
0.159, -1.477e-5
0.158, -1.458e-5
0.157, -1.440e-5
0.156, -1.424e-5
0.155, -1.407e-5
0.154, -1.391e-5
0.153, -1.374e-5
0.152, -1.359e-5
0.151, -1.343e-5
0.150, -1.328e-5
0.149, -1.312e-5
0.148, -1.297e-5
0.147, -1.283e-5
0.146, -1.268e-5
0.145, -1.254e-5
0.144, -1.240e-5
0.143, -1.228e-5
0.142, -1.216e-5
0.141, -1.204e-5
0.140, -1.192e-5
0.139, -1.181e-5
0.138, -1.169e-5
0.137, -1.158e-5
0.136, -1.147e-5
0.135, -1.136e-5
0.134, -1.125e-5
0.133, -1.114e-5
0.132, -1.104e-5
0.131, -1.094e-5
0.130, -1.083e-5
0.129, -1.074e-5
0.128, -1.066e-5
0.127, -1.056e-5
0.126, -1.047e-5
0.125, -1.038e-5
0.124, -1.030e-5
0.123, -1.022e-5
0.122, -1.014e-5
0.121, -1.006e-5
0.120, -9.984e-6
0.119, -9.904e-6
0.118, -9.821e-6
0.117, -9.746e-6
0.116, -9.666e-6
0.115, -9.590e-6
0.114, -9.520e-6
0.113, -9.446e-6
0.112, -9.372e-6
0.111, -9.299e-6
0.110, -9.227e-6
0.109, -9.166e-6
0.108, -9.105e-6
0.107, -9.047e-6
0.106, -8.986e-6
0.105, -8.916e-6
0.104, -8.853e-6
0.103, -8.798e-6
0.102, -8.738e-6
0.101, -8.674e-6
0.100, -8.613e-6
0.099, -8.562e-6
0.098, -8.501e-6
0.097, -8.440e-6
0.096, -8.398e-6
0.095, -8.345e-6
0.094, -8.293e-6
0.093, -8.229e-6
0.092, -8.166e-6
0.091, -8.114e-6
0.090, -8.063e-6
0.089, -8.006e-6
0.088, -7.957e-6
0.087, -7.906e-6
0.086, -7.856e-6
0.085, -7.809e-6
0.084, -7.763e-6
0.083, -7.717e-6
0.082, -7.670e-6
0.081, -7.623e-6
0.080, -7.581e-6
0.079, -7.540e-6
0.078, -7.502e-6
0.077, -7.459e-6
0.076, -7.422e-6
0.075, -7.380e-6
0.074, -7.338e-6
0.073, -7.295e-6
0.072, -7.254e-6
0.071, -7.220e-6
0.070, -7.183e-6
0.069, -7.146e-6
0.068, -7.110e-6
0.067, -7.071e-6
0.066, -7.030e-6
0.065, -6.991e-6
0.064, -6.960e-6
0.063, -6.941e-6
0.062, -6.902e-6
0.061, -6.860e-6
0.060, -6.824e-6
0.059, -6.791e-6
0.058, -6.753e-6
0.057, -6.716e-6
0.056, -6.684e-6
0.055, -6.655e-6
0.054, -6.624e-6
0.053, -6.597e-6
0.052, -6.568e-6
0.051, -6.534e-6
0.050, -6.500e-6
0.049, -6.468e-6
0.048, -6.442e-6
0.047, -6.411e-6
0.046, -6.381e-6
0.045, -6.354e-6
0.044, -6.328e-6
0.043, -6.296e-6
0.042, -6.269e-6
0.041, -6.238e-6
0.040, -6.212e-6
0.039, -6.183e-6
0.038, -6.152e-6
0.037, -6.127e-6
0.036, -6.104e-6
0.035, -6.078e-6
0.034, -6.050e-6
0.033, -6.020e-6
0.032, -6.003e-6
0.031, -5.982e-6
0.030, -5.954e-6
0.029, -5.924e-6
0.028, -5.897e-6
0.027, -5.872e-6
0.026, -5.850e-6
0.025, -5.828e-6
0.024, -5.806e-6
0.023, -5.781e-6
0.022, -5.758e-6
0.021, -5.739e-6
0.020, -5.717e-6
0.019, -5.694e-6
0.018, -5.670e-6
0.017, -5.647e-6
0.016, -5.629e-6
0.015, -5.604e-6
0.014, -5.584e-6
0.013, -5.563e-6
0.012, -5.536e-6
0.011, -5.506e-6
0.010, -5.481e-6
0.009, -5.461e-6
0.008, -5.442e-6
0.007, -5.428e-6
0.006, -5.406e-6
0.005, -5.389e-6
0.004, -5.367e-6
0.003, -5.348e-6
0.002, -5.332e-6
0.001, -5.314e-6
0.000, -5.232e-6
0.001, -4.989e-6
0.002, -4.859e-6
0.003, -4.774e-6
0.004, -4.703e-6
0.005, -4.636e-6
0.006, -4.572e-6
0.007, -4.514e-6
0.008, -4.458e-6
0.009, -4.401e-6
0.010, -4.348e-6
0.011, -4.294e-6
0.012, -4.248e-6
0.013, -4.198e-6
0.014, -4.148e-6
0.015, -4.106e-6
0.016, -4.063e-6
0.017, -4.015e-6
0.018, -3.971e-6
0.019, -3.927e-6
0.020, -3.885e-6
0.021, -3.843e-6
0.022, -3.802e-6
0.023, -3.762e-6
0.024, -3.720e-6
0.025, -3.678e-6
0.026, -3.638e-6
0.027, -3.601e-6
0.028, -3.562e-6
0.029, -3.530e-6
0.030, -3.496e-6
0.031, -3.464e-6
0.032, -3.430e-6
0.033, -3.395e-6
0.034, -3.363e-6
0.035, -3.331e-6
0.036, -3.299e-6
0.037, -3.271e-6
0.038, -3.239e-6
0.039, -3.208e-6
0.040, -3.181e-6
0.041, -3.149e-6
0.042, -3.123e-6
0.043, -3.097e-6
0.044, -3.066e-6
0.045, -3.037e-6
0.046, -3.013e-6
0.047, -2.983e-6
0.048, -2.955e-6
0.049, -2.927e-6
0.050, -2.902e-6
0.051, -2.874e-6
0.052, -2.845e-6
0.053, -2.820e-6
0.054, -2.796e-6
0.055, -2.771e-6
0.056, -2.748e-6
0.057, -2.724e-6
0.058, -2.702e-6
0.059, -2.681e-6
0.060, -2.659e-6
0.061, -2.636e-6
0.062, -2.611e-6
0.063, -2.589e-6
0.064, -2.568e-6
0.065, -2.545e-6
0.066, -2.523e-6
0.067, -2.502e-6
0.068, -2.480e-6
0.069, -2.458e-6
0.070, -2.439e-6
0.071, -2.419e-6
0.072, -2.398e-6
0.073, -2.378e-6
0.074, -2.359e-6
0.075, -2.339e-6
0.076, -2.319e-6
0.077, -2.299e-6
0.078, -2.278e-6
0.079, -2.260e-6
0.080, -2.241e-6
0.081, -2.223e-6
0.082, -2.204e-6
0.083, -2.182e-6
0.084, -2.163e-6
0.085, -2.146e-6
0.086, -2.127e-6
0.087, -2.110e-6
0.088, -2.091e-6
0.089, -2.073e-6
0.090, -2.055e-6
0.091, -2.036e-6
0.092, -2.017e-6
0.093, -1.999e-6
0.094, -1.983e-6
0.095, -1.967e-6
0.096, -1.949e-6
0.097, -1.930e-6
0.098, -1.913e-6
0.099, -1.897e-6
0.100, -1.880e-6
0.101, -1.863e-6
0.102, -1.845e-6
0.103, -1.826e-6
0.104, -1.809e-6
0.105, -1.793e-6
0.106, -1.778e-6
0.107, -1.762e-6
0.108, -1.746e-6
0.109, -1.730e-6
0.110, -1.715e-6
0.111, -1.699e-6
0.112, -1.683e-6
0.113, -1.665e-6
0.114, -1.651e-6
0.115, -1.633e-6
0.116, -1.616e-6
0.117, -1.599e-6
0.118, -1.583e-6
0.119, -1.569e-6
0.120, -1.554e-6
0.121, -1.537e-6
0.122, -1.522e-6
0.123, -1.507e-6
0.124, -1.490e-6
0.125, -1.474e-6
0.126, -1.458e-6
0.127, -1.442e-6
0.128, -1.426e-6
0.129, -1.411e-6
0.130, -1.393e-6
0.131, -1.377e-6
0.132, -1.362e-6
0.133, -1.348e-6
0.134, -1.332e-6
0.135, -1.315e-6
0.136, -1.299e-6
0.137, -1.282e-6
0.138, -1.266e-6
0.139, -1.250e-6
0.140, -1.233e-6
0.141, -1.214e-6
0.142, -1.198e-6
0.143, -1.183e-6
0.144, -1.166e-6
0.145, -1.150e-6
0.146, -1.134e-6
0.147, -1.116e-6
0.148, -1.098e-6
0.149, -1.084e-6
0.150, -1.066e-6
0.151, -1.050e-6
0.152, -1.033e-6
0.153, -1.014e-6
0.154, -9.944e-7
0.155, -9.782e-7
0.156, -9.624e-7
0.157, -9.432e-7
0.158, -9.246e-7
0.159, -9.050e-7
0.160, -8.853e-7
0.161, -8.643e-7
0.162, -8.440e-7
0.163, -8.245e-7
0.164, -8.040e-7
0.165, -7.844e-7
0.166, -7.628e-7
0.167, -7.420e-7
0.168, -7.216e-7
0.169, -7.033e-7
0.170, -6.815e-7
0.171, -6.568e-7
0.172, -6.344e-7
0.173, -6.122e-7
0.174, -5.888e-7
0.175, -5.633e-7
0.176, -5.392e-7
0.177, -5.123e-7
0.178, -4.889e-7
0.179, -4.624e-7
0.180, -4.357e-7
0.181, -4.096e-7
0.182, -3.811e-7
0.183, -3.533e-7
0.184, -3.251e-7
0.185, -2.937e-7
0.186, -2.616e-7
0.187, -2.283e-7
0.188, -1.926e-7
0.189, -1.575e-7
0.190, -1.203e-7
0.191, -7.926e-8
0.192, -3.659e-8
0.193, 7.059e-9
0.194, 5.218e-8
0.195, 9.986e-8
0.196, 1.517e-7
0.197, 2.041e-7
0.198, 2.632e-7
0.199, 3.255e-7
0.200, 3.929e-7
0.201, 4.652e-7
0.202, 5.411e-7
0.203, 6.276e-7
0.204, 7.188e-7
0.205, 8.223e-7
0.206, 9.349e-7
0.207, 1.059e-6
0.208, 1.194e-6
0.209, 1.343e-6
0.210, 1.504e-6
0.211, 1.684e-6
0.212, 1.879e-6
0.213, 2.089e-6
0.214, 2.329e-6
0.215, 2.590e-6
0.216, 2.872e-6
0.217, 3.184e-6
0.218, 3.519e-6
0.219, 3.887e-6
0.220, 4.286e-6
0.221, 4.717e-6
0.222, 5.187e-6
0.223, 5.686e-6
0.224, 6.225e-6
0.225, 6.802e-6
0.226, 7.423e-6
0.227, 8.078e-6
0.228, 8.770e-6
0.229, 9.499e-6
0.230, 1.027e-5
0.231, 1.108e-5
0.232, 1.193e-5
0.233, 1.281e-5
0.234, 1.373e-5
0.235, 1.469e-5
0.236, 1.569e-5
0.237, 1.671e-5
0.238, 1.777e-5
0.239, 1.885e-5
0.240, 1.996e-5
0.241, 2.111e-5
0.242, 2.228e-5
0.243, 2.348e-5
0.244, 2.471e-5
0.245, 2.596e-5
0.246, 2.723e-5
0.247, 2.851e-5
0.248, 2.982e-5
0.249, 3.116e-5
0.250, 3.249e-5
0.251, 3.385e-5
0.252, 3.522e-5
0.253, 3.660e-5
0.254, 3.801e-5
0.255, 3.943e-5
0.256, 4.085e-5
0.257, 4.228e-5
0.258, 4.370e-5
0.259, 4.513e-5
0.260, 4.654e-5
0.261, 4.796e-5
0.262, 4.935e-5
0.263, 5.074e-5
0.264, 5.212e-5
0.265, 5.349e-5
0.266, 5.483e-5
0.267, 5.614e-5
0.268, 5.741e-5
0.269, 5.864e-5
0.270, 5.983e-5
0.271, 6.093e-5
0.272, 6.196e-5
0.273, 6.291e-5
0.274, 6.373e-5
0.275, 6.445e-5
0.276, 6.503e-5
0.277, 6.548e-5
0.278, 6.580e-5
0.279, 6.597e-5
0.280, 6.599e-5
0.281, 6.586e-5
0.282, 6.559e-5
0.283, 6.519e-5
0.284, 6.468e-5
0.285, 6.409e-5
0.286, 6.342e-5
0.287, 6.268e-5
0.288, 6.191e-5
0.289, 6.111e-5
0.290, 6.026e-5
0.291, 5.941e-5
0.292, 5.852e-5
0.293, 5.760e-5
0.294, 5.666e-5
0.295, 5.572e-5
0.296, 5.475e-5
0.297, 5.374e-5
0.298, 5.275e-5
0.299, 5.178e-5
0.300, 5.080e-5
0.301, 4.986e-5
0.302, 4.894e-5
0.303, 4.804e-5
0.304, 4.715e-5
0.305, 4.628e-5
0.306, 4.545e-5
0.307, 4.467e-5
0.308, 4.393e-5
0.309, 4.318e-5
0.310, 4.245e-5
0.311, 4.173e-5
0.312, 4.103e-5
0.313, 4.036e-5
0.314, 3.969e-5
0.315, 3.905e-5
0.316, 3.841e-5
0.317, 3.779e-5
0.318, 3.719e-5
0.319, 3.660e-5
0.320, 3.605e-5
0.321, 3.550e-5
0.322, 3.497e-5
0.323, 3.445e-5
0.324, 3.393e-5
0.325, 3.343e-5
0.326, 3.294e-5
0.327, 3.247e-5
0.328, 3.201e-5
0.329, 3.156e-5
0.330, 3.111e-5
0.331, 3.066e-5
0.332, 3.021e-5
0.333, 2.979e-5
0.334, 2.940e-5
0.335, 2.898e-5
0.336, 2.858e-5
0.337, 2.816e-5
0.338, 2.777e-5
0.339, 2.740e-5
0.340, 2.702e-5
0.341, 2.663e-5
0.342, 2.628e-5
0.343, 2.591e-5
0.344, 2.555e-5
0.345, 2.521e-5
0.346, 2.489e-5
0.347, 2.457e-5
0.348, 2.424e-5
0.349, 2.392e-5
0.350, 2.362e-5
0.351, 2.333e-5
0.352, 2.305e-5
0.353, 2.275e-5
0.354, 2.246e-5
0.355, 2.220e-5
0.356, 2.193e-5
0.357, 2.166e-5
0.358, 2.141e-5
0.359, 2.117e-5
0.360, 2.093e-5
0.361, 2.069e-5
0.362, 2.046e-5
0.363, 2.024e-5
0.364, 2.002e-5
0.365, 1.980e-5
0.366, 1.960e-5
0.367, 1.939e-5
0.368, 1.919e-5
0.369, 1.901e-5
0.370, 1.883e-5
0.371, 1.866e-5
0.372, 1.848e-5
0.373, 1.832e-5
0.374, 1.815e-5
0.375, 1.799e-5
0.376, 1.783e-5
0.377, 1.768e-5
0.378, 1.754e-5
0.379, 1.741e-5
0.380, 1.727e-5
0.381, 1.713e-5
0.382, 1.700e-5
0.383, 1.687e-5
0.384, 1.675e-5
0.385, 1.664e-5
0.386, 1.651e-5
0.387, 1.640e-5
0.388, 1.629e-5
0.389, 1.618e-5
0.390, 1.607e-5
0.391, 1.596e-5
0.392, 1.586e-5
0.393, 1.576e-5
0.394, 1.565e-5
0.395, 1.556e-5
0.396, 1.546e-5
0.397, 1.538e-5
0.398, 1.529e-5
0.399, 1.520e-5
0.400, 1.512e-5
0.401, 1.503e-5
0.402, 1.494e-5
0.403, 1.486e-5
0.404, 1.479e-5
0.405, 1.471e-5
0.406, 1.464e-5
0.407, 1.456e-5
0.408, 1.449e-5
0.409, 1.443e-5
0.410, 1.436e-5
0.411, 1.431e-5
0.412, 1.425e-5
0.413, 1.419e-5
0.414, 1.414e-5
0.415, 1.407e-5
0.416, 1.403e-5
0.417, 1.398e-5
0.418, 1.393e-5
0.419, 1.388e-5
0.420, 1.383e-5
0.421, 1.378e-5
0.422, 1.375e-5
0.423, 1.370e-5
0.424, 1.367e-5
0.425, 1.364e-5
0.426, 1.360e-5
0.427, 1.357e-5
0.428, 1.354e-5
0.429, 1.351e-5
0.430, 1.349e-5
0.431, 1.345e-5
0.432, 1.343e-5
0.433, 1.341e-5
0.434, 1.338e-5
0.435, 1.337e-5
0.436, 1.334e-5
0.437, 1.332e-5
0.438, 1.332e-5
0.439, 1.330e-5
0.440, 1.329e-5
0.441, 1.328e-5
0.442, 1.327e-5
0.443, 1.327e-5
0.444, 1.326e-5
0.445, 1.326e-5
0.446, 1.327e-5
0.447, 1.327e-5
0.448, 1.328e-5
0.449, 1.329e-5
0.450, 1.329e-5
0.451, 1.330e-5
0.452, 1.331e-5
0.453, 1.332e-5
0.454, 1.333e-5
0.455, 1.333e-5
0.456, 1.335e-5
0.457, 1.337e-5
0.458, 1.339e-5
0.459, 1.341e-5
0.460, 1.343e-5
0.461, 1.346e-5
0.462, 1.349e-5
0.463, 1.350e-5
0.464, 1.352e-5
0.465, 1.354e-5
0.466, 1.355e-5
0.467, 1.359e-5
0.468, 1.362e-5
0.469, 1.365e-5
0.470, 1.368e-5
0.471, 1.370e-5
0.472, 1.374e-5
0.473, 1.377e-5
0.474, 1.381e-5
0.475, 1.386e-5
0.476, 1.388e-5
0.477, 1.391e-5
0.478, 1.396e-5
0.479, 1.400e-5
0.480, 1.402e-5
0.481, 1.405e-5
0.482, 1.407e-5
0.483, 1.411e-5
0.484, 1.414e-5
0.485, 1.418e-5
0.486, 1.422e-5
0.487, 1.425e-5
0.488, 1.430e-5
0.489, 1.435e-5
0.490, 1.438e-5
0.491, 1.443e-5
0.492, 1.446e-5
0.493, 1.451e-5
0.494, 1.457e-5
0.495, 1.460e-5
0.496, 1.465e-5
0.497, 1.470e-5
0.498, 1.474e-5
0.499, 1.480e-5
0.500, 1.486e-5
0.501, 1.490e-5
0.502, 1.495e-5
0.503, 1.499e-5
0.504, 1.505e-5
0.505, 1.510e-5
0.506, 1.516e-5
0.507, 1.522e-5
0.508, 1.527e-5
0.509, 1.533e-5
0.510, 1.540e-5
0.511, 1.545e-5
0.512, 1.553e-5
0.513, 1.562e-5
0.514, 1.567e-5
0.515, 1.574e-5
0.516, 1.581e-5
0.517, 1.588e-5
0.518, 1.595e-5
0.519, 1.602e-5
0.520, 1.610e-5
0.521, 1.618e-5
0.522, 1.625e-5
0.523, 1.634e-5
0.524, 1.643e-5
0.525, 1.653e-5
0.526, 1.663e-5
0.527, 1.672e-5
0.528, 1.682e-5
0.529, 1.690e-5
0.530, 1.698e-5
0.531, 1.709e-5
0.532, 1.719e-5
0.533, 1.728e-5
0.534, 1.738e-5
0.535, 1.749e-5
0.536, 1.760e-5
0.537, 1.771e-5
0.538, 1.782e-5
0.539, 1.794e-5
0.540, 1.806e-5
0.541, 1.818e-5
0.542, 1.830e-5
0.543, 1.842e-5
0.544, 1.854e-5
0.545, 1.867e-5
0.546, 1.880e-5
0.547, 1.894e-5
0.548, 1.907e-5
0.549, 1.920e-5
0.550, 1.934e-5
0.551, 1.947e-5
0.552, 1.961e-5
0.553, 1.975e-5
0.554, 1.990e-5
0.555, 2.004e-5
0.556, 2.019e-5
0.557, 2.035e-5
0.558, 2.051e-5
0.559, 2.066e-5
0.560, 2.082e-5
0.561, 2.098e-5
0.562, 2.113e-5
0.563, 2.130e-5
0.564, 2.147e-5
0.565, 2.164e-5
0.566, 2.180e-5
0.567, 2.196e-5
0.568, 2.212e-5
0.569, 2.228e-5
0.570, 2.244e-5
0.571, 2.262e-5
0.572, 2.279e-5
0.573, 2.296e-5
0.574, 2.314e-5
0.575, 2.330e-5
0.576, 2.347e-5
0.577, 2.364e-5
0.578, 2.380e-5
0.579, 2.398e-5
0.580, 2.415e-5
0.581, 2.431e-5
0.582, 2.449e-5
0.583, 2.466e-5
0.584, 2.483e-5
0.585, 2.499e-5
0.586, 2.516e-5
0.587, 2.533e-5
0.588, 2.549e-5
0.589, 2.566e-5
0.590, 2.583e-5
0.591, 2.599e-5
0.592, 2.616e-5
0.593, 2.633e-5
0.594, 2.648e-5
0.595, 2.666e-5
0.596, 2.682e-5
0.597, 2.698e-5
0.598, 2.715e-5
0.599, 2.730e-5
0.600, 2.746e-5
0.601, 2.762e-5
0.602, 2.777e-5
0.603, 2.794e-5
0.604, 2.810e-5
0.605, 2.825e-5
0.606, 2.842e-5
0.607, 2.858e-5
0.608, 2.875e-5
0.609, 2.892e-5
0.610, 2.907e-5
0.611, 2.924e-5
0.612, 2.939e-5
0.613, 2.956e-5
0.614, 2.973e-5
0.615, 2.992e-5
0.616, 3.009e-5
0.617, 3.026e-5
0.618, 3.043e-5
0.619, 3.060e-5
0.620, 3.077e-5
0.621, 3.095e-5
0.622, 3.113e-5
0.623, 3.130e-5
0.624, 3.148e-5
0.625, 3.168e-5
0.626, 3.186e-5
0.627, 3.206e-5
0.628, 3.226e-5
0.629, 3.246e-5
0.630, 3.267e-5
0.631, 3.287e-5
0.632, 3.307e-5
0.633, 3.328e-5
0.634, 3.350e-5
0.635, 3.372e-5
0.636, 3.392e-5
0.637, 3.415e-5
0.638, 3.440e-5
0.639, 3.463e-5
0.640, 3.488e-5
0.641, 3.512e-5
0.642, 3.537e-5
0.643, 3.563e-5
0.644, 3.590e-5
0.645, 3.616e-5
0.646, 3.644e-5
0.647, 3.673e-5
0.648, 3.703e-5
0.649, 3.732e-5
0.650, 3.761e-5
0.651, 3.792e-5
0.652, 3.824e-5
0.653, 3.859e-5
0.654, 3.894e-5
0.655, 3.927e-5
0.656, 3.963e-5
0.657, 4.000e-5
0.658, 4.036e-5
0.659, 4.075e-5
0.660, 4.115e-5
0.661, 4.155e-5
0.662, 4.199e-5
0.663, 4.242e-5
0.664, 4.287e-5
0.665, 4.331e-5
0.666, 4.377e-5
0.667, 4.424e-5
0.668, 4.471e-5
0.669, 4.520e-5
0.670, 4.571e-5
0.671, 4.622e-5
0.672, 4.676e-5
0.673, 4.731e-5
0.674, 4.786e-5
0.675, 4.843e-5
0.676, 4.902e-5
0.677, 4.962e-5
0.678, 5.025e-5
0.679, 5.087e-5
0.680, 5.153e-5
0.681, 5.220e-5
0.682, 5.289e-5
0.683, 5.361e-5
0.684, 5.431e-5
0.685, 5.505e-5
0.686, 5.580e-5
0.687, 5.655e-5
0.688, 5.734e-5
0.689, 5.816e-5
0.690, 5.899e-5
0.691, 5.984e-5
0.692, 6.069e-5
0.693, 6.159e-5
0.694, 6.249e-5
0.695, 6.340e-5
0.696, 6.433e-5
0.697, 6.530e-5
0.698, 6.628e-5
0.699, 6.729e-5
0.700, 6.830e-5
0.701, 6.935e-5
0.702, 7.042e-5
0.703, 7.151e-5
0.704, 7.265e-5
0.705, 7.381e-5
0.706, 7.496e-5
0.707, 7.614e-5
0.708, 7.735e-5
0.709, 7.858e-5
0.710, 7.982e-5
0.711, 8.110e-5
0.712, 8.240e-5
0.713, 8.372e-5
0.714, 8.508e-5
0.715, 8.645e-5
0.716, 8.782e-5
0.717, 8.925e-5
0.718, 9.072e-5
0.719, 9.218e-5
0.720, 9.368e-5
0.721, 9.518e-5
0.722, 9.671e-5
0.723, 9.828e-5
0.724, 9.984e-5
0.725, 1.014e-4
0.726, 1.031e-4
0.727, 1.047e-4
0.728, 1.064e-4
0.729, 1.081e-4
0.730, 1.098e-4
0.731, 1.116e-4
0.732, 1.133e-4
0.733, 1.151e-4
0.734, 1.169e-4
0.735, 1.187e-4
0.736, 1.206e-4
0.737, 1.225e-4
0.738, 1.244e-4
0.739, 1.264e-4
0.740, 1.283e-4
0.741, 1.303e-4
0.742, 1.323e-4
0.743, 1.344e-4
0.744, 1.365e-4
0.745, 1.386e-4
0.746, 1.406e-4
0.747, 1.427e-4
0.748, 1.449e-4
0.749, 1.471e-4
0.750, 1.493e-4
0.751, 1.515e-4
0.752, 1.537e-4
0.753, 1.560e-4
0.754, 1.582e-4
0.755, 1.606e-4
0.756, 1.629e-4
0.757, 1.652e-4
0.758, 1.675e-4
0.759, 1.700e-4
0.760, 1.724e-4
0.761, 1.748e-4
0.762, 1.772e-4
0.763, 1.796e-4
0.764, 1.821e-4
0.765, 1.846e-4
0.766, 1.872e-4
0.767, 1.898e-4
0.768, 1.923e-4
0.769, 1.949e-4
0.770, 1.975e-4
0.771, 2.001e-4
0.772, 2.028e-4
0.773, 2.054e-4
0.774, 2.082e-4
0.775, 2.109e-4
0.776, 2.136e-4
0.777, 2.164e-4
0.778, 2.191e-4
0.779, 2.218e-4
0.780, 2.246e-4
0.781, 2.274e-4
0.782, 2.302e-4
0.783, 2.331e-4
0.784, 2.360e-4
0.785, 2.388e-4
0.786, 2.417e-4
0.787, 2.446e-4
0.788, 2.476e-4
0.789, 2.505e-4
0.790, 2.535e-4
0.791, 2.565e-4
0.792, 2.596e-4
0.793, 2.627e-4
0.794, 2.657e-4
0.795, 2.687e-4
0.796, 2.717e-4
0.797, 2.748e-4
0.798, 2.778e-4
0.799, 2.809e-4
0.800, 2.836e-4
0.799, 2.815e-4
0.798, 2.768e-4
0.797, 2.720e-4
0.796, 2.674e-4
0.795, 2.629e-4
0.794, 2.585e-4
0.793, 2.543e-4
0.792, 2.501e-4
0.791, 2.460e-4
0.790, 2.418e-4
0.789, 2.377e-4
0.788, 2.337e-4
0.787, 2.298e-4
0.786, 2.258e-4
0.785, 2.220e-4
0.784, 2.182e-4
0.783, 2.144e-4
0.782, 2.107e-4
0.781, 2.070e-4
0.780, 2.034e-4
0.779, 1.997e-4
0.778, 1.962e-4
0.777, 1.927e-4
0.776, 1.892e-4
0.775, 1.857e-4
0.774, 1.823e-4
0.773, 1.789e-4
0.772, 1.756e-4
0.771, 1.723e-4
0.770, 1.690e-4
0.769, 1.658e-4
0.768, 1.627e-4
0.767, 1.595e-4
0.766, 1.564e-4
0.765, 1.533e-4
0.764, 1.503e-4
0.763, 1.473e-4
0.762, 1.444e-4
0.761, 1.415e-4
0.760, 1.386e-4
0.759, 1.357e-4
0.758, 1.329e-4
0.757, 1.301e-4
0.756, 1.273e-4
0.755, 1.246e-4
0.754, 1.219e-4
0.753, 1.193e-4
0.752, 1.167e-4
0.751, 1.141e-4
0.750, 1.115e-4
0.749, 1.090e-4
0.748, 1.065e-4
0.747, 1.041e-4
0.746, 1.017e-4
0.745, 9.933e-5
0.744, 9.697e-5
0.743, 9.464e-5
0.742, 9.236e-5
0.741, 9.013e-5
0.740, 8.797e-5
0.739, 8.581e-5
0.738, 8.366e-5
0.737, 8.155e-5
0.736, 7.950e-5
0.735, 7.746e-5
0.734, 7.547e-5
0.733, 7.351e-5
0.732, 7.157e-5
0.731, 6.966e-5
0.730, 6.778e-5
0.729, 6.593e-5
0.728, 6.412e-5
0.727, 6.236e-5
0.726, 6.062e-5
0.725, 5.889e-5
0.724, 5.721e-5
0.723, 5.553e-5
0.722, 5.390e-5
0.721, 5.232e-5
0.720, 5.076e-5
0.719, 4.923e-5
0.718, 4.772e-5
0.717, 4.623e-5
0.716, 4.477e-5
0.715, 4.335e-5
0.714, 4.197e-5
0.713, 4.062e-5
0.712, 3.929e-5
0.711, 3.799e-5
0.710, 3.671e-5
0.709, 3.544e-5
0.708, 3.423e-5
0.707, 3.304e-5
0.706, 3.189e-5
0.705, 3.075e-5
0.704, 2.962e-5
0.703, 2.852e-5
0.702, 2.744e-5
0.701, 2.640e-5
0.700, 2.539e-5
0.699, 2.440e-5
0.698, 2.342e-5
0.697, 2.247e-5
0.696, 2.153e-5
0.695, 2.063e-5
0.694, 1.974e-5
0.693, 1.887e-5
0.692, 1.804e-5
0.691, 1.720e-5
0.690, 1.641e-5
0.689, 1.563e-5
0.688, 1.485e-5
0.687, 1.410e-5
0.686, 1.338e-5
0.685, 1.267e-5
0.684, 1.198e-5
0.683, 1.130e-5
0.682, 1.065e-5
0.681, 1.001e-5
0.680, 9.388e-6
0.679, 8.794e-6
0.678, 8.193e-6
0.677, 7.606e-6
0.676, 7.038e-6
0.675, 6.478e-6
0.674, 5.935e-6
0.673, 5.427e-6
0.672, 4.921e-6
0.671, 4.429e-6
0.670, 3.950e-6
0.669, 3.480e-6
0.668, 3.026e-6
0.667, 2.574e-6
0.666, 2.136e-6
0.665, 1.706e-6
0.664, 1.294e-6
0.663, 9.017e-7
0.662, 5.158e-7
0.661, 1.322e-7
0.660, -2.299e-7
0.659, -6.029e-7
0.658, -9.678e-7
0.657, -1.303e-6
0.656, -1.642e-6
0.655, -1.965e-6
0.654, -2.274e-6
0.653, -2.585e-6
0.652, -2.891e-6
0.651, -3.188e-6
0.650, -3.467e-6
0.649, -3.742e-6
0.648, -4.016e-6
0.647, -4.279e-6
0.646, -4.548e-6
0.645, -4.810e-6
0.644, -5.047e-6
0.643, -5.289e-6
0.642, -5.531e-6
0.641, -5.756e-6
0.640, -5.987e-6
0.639, -6.202e-6
0.638, -6.411e-6
0.637, -6.618e-6
0.636, -6.819e-6
0.635, -7.016e-6
0.634, -7.215e-6
0.633, -7.410e-6
0.632, -7.601e-6
0.631, -7.768e-6
0.630, -7.941e-6
0.629, -8.122e-6
0.628, -8.288e-6
0.627, -8.464e-6
0.626, -8.633e-6
0.625, -8.782e-6
0.624, -8.943e-6
0.623, -9.097e-6
0.622, -9.235e-6
0.621, -9.381e-6
0.620, -9.526e-6
0.619, -9.658e-6
0.618, -9.788e-6
0.617, -9.911e-6
0.616, -1.005e-5
0.615, -1.017e-5
0.614, -1.030e-5
0.613, -1.043e-5
0.612, -1.053e-5
0.611, -1.064e-5
0.610, -1.075e-5
0.609, -1.084e-5
0.608, -1.095e-5
0.607, -1.105e-5
0.606, -1.114e-5
0.605, -1.124e-5
0.604, -1.133e-5
0.603, -1.142e-5
0.602, -1.151e-5
0.601, -1.159e-5
0.600, -1.167e-5
0.599, -1.174e-5
0.598, -1.181e-5
0.597, -1.189e-5
0.596, -1.195e-5
0.595, -1.202e-5
0.594, -1.209e-5
0.593, -1.215e-5
0.592, -1.222e-5
0.591, -1.227e-5
0.590, -1.232e-5
0.589, -1.238e-5
0.588, -1.243e-5
0.587, -1.247e-5
0.586, -1.251e-5
0.585, -1.255e-5
0.584, -1.259e-5
0.583, -1.262e-5
0.582, -1.266e-5
0.581, -1.270e-5
0.580, -1.272e-5
0.579, -1.275e-5
0.578, -1.277e-5
0.577, -1.278e-5
0.576, -1.281e-5
0.575, -1.282e-5
0.574, -1.283e-5
0.573, -1.285e-5
0.572, -1.285e-5
0.571, -1.287e-5
0.570, -1.288e-5
0.569, -1.288e-5
0.568, -1.289e-5
0.567, -1.288e-5
0.566, -1.287e-5
0.565, -1.288e-5
0.564, -1.287e-5
0.563, -1.288e-5
0.562, -1.288e-5
0.561, -1.287e-5
0.560, -1.286e-5
0.559, -1.285e-5
0.558, -1.283e-5
0.557, -1.281e-5
0.556, -1.280e-5
0.555, -1.278e-5
0.554, -1.276e-5
0.553, -1.274e-5
0.552, -1.272e-5
0.551, -1.270e-5
0.550, -1.267e-5
0.549, -1.265e-5
0.548, -1.263e-5
0.547, -1.260e-5
0.546, -1.257e-5
0.545, -1.252e-5
0.544, -1.251e-5
0.543, -1.248e-5
0.542, -1.244e-5
0.541, -1.242e-5
0.540, -1.239e-5
0.539, -1.237e-5
0.538, -1.234e-5
0.537, -1.230e-5
0.536, -1.228e-5
0.535, -1.224e-5
0.534, -1.220e-5
0.533, -1.216e-5
0.532, -1.212e-5
0.531, -1.209e-5
0.530, -1.206e-5
0.529, -1.202e-5
0.528, -1.198e-5
0.527, -1.194e-5
0.526, -1.189e-5
0.525, -1.186e-5
0.524, -1.182e-5
0.523, -1.178e-5
0.522, -1.175e-5
0.521, -1.170e-5
0.520, -1.167e-5
0.519, -1.163e-5
0.518, -1.159e-5
0.517, -1.156e-5
0.516, -1.152e-5
0.515, -1.148e-5
0.514, -1.144e-5
0.513, -1.139e-5
0.512, -1.138e-5
0.511, -1.135e-5
0.510, -1.130e-5
0.509, -1.127e-5
0.508, -1.122e-5
0.507, -1.118e-5
0.506, -1.114e-5
0.505, -1.111e-5
0.504, -1.108e-5
0.503, -1.104e-5
0.502, -1.100e-5
0.501, -1.097e-5
0.500, -1.092e-5
0.499, -1.089e-5
0.498, -1.087e-5
0.497, -1.082e-5
0.496, -1.080e-5
0.495, -1.075e-5
0.494, -1.072e-5
0.493, -1.069e-5
0.492, -1.066e-5
0.491, -1.063e-5
0.490, -1.058e-5
0.489, -1.054e-5
0.488, -1.052e-5
0.487, -1.049e-5
0.486, -1.046e-5
0.485, -1.044e-5
0.484, -1.041e-5
0.483, -1.038e-5
0.482, -1.035e-5
0.481, -1.031e-5
0.480, -1.029e-5
0.479, -1.027e-5
0.478, -1.024e-5
0.477, -1.021e-5
0.476, -1.018e-5
0.475, -1.016e-5
0.474, -1.014e-5
0.473, -1.012e-5
0.472, -1.010e-5
0.471, -1.007e-5
0.470, -1.005e-5
0.469, -1.004e-5
0.468, -1.001e-5
0.467, -9.997e-6
0.466, -9.978e-6
0.465, -9.948e-6
0.464, -9.944e-6
0.463, -9.929e-6
0.462, -9.910e-6
0.461, -9.893e-6
0.460, -9.882e-6
0.459, -9.872e-6
0.458, -9.851e-6
0.457, -9.832e-6
0.456, -9.825e-6
0.455, -9.809e-6
0.454, -9.793e-6
0.453, -9.786e-6
0.452, -9.771e-6
0.451, -9.760e-6
0.450, -9.748e-6
0.449, -9.734e-6
0.448, -9.725e-6
0.447, -9.711e-6
0.446, -9.697e-6
0.445, -9.694e-6
0.444, -9.684e-6
0.443, -9.678e-6
0.442, -9.674e-6
0.441, -9.669e-6
0.440, -9.668e-6
0.439, -9.659e-6
0.438, -9.652e-6
0.437, -9.651e-6
0.436, -9.643e-6
0.435, -9.646e-6
0.434, -9.645e-6
0.433, -9.637e-6
0.432, -9.639e-6
0.431, -9.639e-6
0.430, -9.642e-6
0.429, -9.648e-6
0.428, -9.648e-6
0.427, -9.648e-6
0.426, -9.647e-6
0.425, -9.644e-6
0.424, -9.651e-6
0.423, -9.651e-6
0.422, -9.657e-6
0.421, -9.670e-6
0.420, -9.662e-6
0.419, -9.666e-6
0.418, -9.672e-6
0.417, -9.676e-6
0.416, -9.692e-6
0.415, -9.699e-6
0.414, -9.701e-6
0.413, -9.716e-6
0.412, -9.721e-6
0.411, -9.732e-6
0.410, -9.748e-6
0.409, -9.761e-6
0.408, -9.773e-6
0.407, -9.776e-6
0.406, -9.780e-6
0.405, -9.795e-6
0.404, -9.800e-6
0.403, -9.814e-6
0.402, -9.833e-6
0.401, -9.839e-6
0.400, -9.862e-6
0.399, -9.879e-6
0.398, -9.893e-6
0.397, -9.914e-6
0.396, -9.932e-6
0.395, -9.950e-6
0.394, -9.966e-6
0.393, -9.989e-6
0.392, -1.001e-5
0.391, -1.003e-5
0.390, -1.005e-5
0.389, -1.007e-5
0.388, -1.009e-5
0.387, -1.011e-5
0.386, -1.014e-5
0.385, -1.016e-5
0.384, -1.019e-5
0.383, -1.021e-5
0.382, -1.023e-5
0.381, -1.026e-5
0.380, -1.028e-5
0.379, -1.030e-5
0.378, -1.034e-5
0.377, -1.036e-5
0.376, -1.039e-5
0.375, -1.042e-5
0.374, -1.045e-5
0.373, -1.048e-5
0.372, -1.051e-5
0.371, -1.055e-5
0.370, -1.059e-5
0.369, -1.061e-5
0.368, -1.065e-5
0.367, -1.068e-5
0.366, -1.071e-5
0.365, -1.075e-5
0.364, -1.079e-5
0.363, -1.083e-5
0.362, -1.087e-5
0.361, -1.090e-5
0.360, -1.094e-5
0.359, -1.098e-5
0.358, -1.104e-5
0.357, -1.108e-5
0.356, -1.112e-5
0.355, -1.116e-5
0.354, -1.121e-5
0.353, -1.125e-5
0.352, -1.130e-5
0.351, -1.135e-5
0.350, -1.139e-5
0.349, -1.145e-5
0.348, -1.149e-5
0.347, -1.155e-5
0.346, -1.160e-5
0.345, -1.165e-5
0.344, -1.171e-5
0.343, -1.176e-5
0.342, -1.182e-5
0.341, -1.188e-5
0.340, -1.193e-5
0.339, -1.199e-5
0.338, -1.205e-5
0.337, -1.210e-5
0.336, -1.217e-5
0.335, -1.223e-5
0.334, -1.228e-5
0.333, -1.235e-5
0.332, -1.242e-5
0.331, -1.248e-5
0.330, -1.255e-5
0.329, -1.262e-5
0.328, -1.271e-5
0.327, -1.277e-5
0.326, -1.285e-5
0.325, -1.292e-5
0.324, -1.299e-5
0.323, -1.307e-5
0.322, -1.315e-5
0.321, -1.322e-5
0.320, -1.331e-5
0.319, -1.339e-5
0.318, -1.348e-5
0.317, -1.356e-5
0.316, -1.363e-5
0.315, -1.372e-5
0.314, -1.382e-5
0.313, -1.390e-5
0.312, -1.400e-5
0.311, -1.408e-5
0.310, -1.418e-5
0.309, -1.428e-5
0.308, -1.437e-5
0.307, -1.448e-5
0.306, -1.460e-5
0.305, -1.469e-5
0.304, -1.479e-5
0.303, -1.490e-5
0.302, -1.500e-5
0.301, -1.510e-5
0.300, -1.521e-5
0.299, -1.533e-5
0.298, -1.544e-5
0.297, -1.556e-5
0.296, -1.568e-5
0.295, -1.579e-5
0.294, -1.590e-5
0.293, -1.603e-5
0.292, -1.614e-5
0.291, -1.627e-5
0.290, -1.640e-5
0.289, -1.651e-5
0.288, -1.664e-5
0.287, -1.677e-5
0.286, -1.690e-5
0.285, -1.704e-5
0.284, -1.717e-5
0.283, -1.731e-5
0.282, -1.744e-5
0.281, -1.758e-5
0.280, -1.773e-5
0.279, -1.788e-5
0.278, -1.802e-5
0.277, -1.816e-5
0.276, -1.830e-5
0.275, -1.846e-5
0.274, -1.861e-5
0.273, -1.875e-5
0.272, -1.890e-5
0.271, -1.905e-5
0.270, -1.920e-5
0.269, -1.936e-5
0.268, -1.952e-5
0.267, -1.968e-5
0.266, -1.984e-5
0.265, -2.000e-5
0.264, -2.016e-5
0.263, -2.033e-5
0.262, -2.049e-5
0.261, -2.065e-5
0.260, -2.080e-5
0.259, -2.097e-5
0.258, -2.115e-5
0.257, -2.131e-5
0.256, -2.148e-5
0.255, -2.165e-5
0.254, -2.181e-5
0.253, -2.198e-5
0.252, -2.215e-5
0.251, -2.230e-5
0.250, -2.247e-5
0.249, -2.264e-5
0.248, -2.281e-5
0.247, -2.295e-5
0.246, -2.311e-5
0.245, -2.326e-5
0.244, -2.340e-5
0.243, -2.354e-5
0.242, -2.369e-5
0.241, -2.384e-5
0.240, -2.396e-5
0.239, -2.408e-5
0.238, -2.422e-5
0.237, -2.435e-5
0.236, -2.446e-5
0.235, -2.457e-5
0.234, -2.467e-5
0.233, -2.477e-5
0.232, -2.486e-5
0.231, -2.493e-5
0.230, -2.500e-5
0.229, -2.506e-5
0.228, -2.510e-5
0.227, -2.514e-5
0.226, -2.517e-5
0.225, -2.518e-5
0.224, -2.518e-5
0.223, -2.516e-5
0.222, -2.514e-5
0.221, -2.511e-5
0.220, -2.507e-5
0.219, -2.502e-5
0.218, -2.495e-5
0.217, -2.486e-5
0.216, -2.476e-5
0.215, -2.465e-5
0.214, -2.451e-5
0.213, -2.438e-5
0.212, -2.423e-5
0.211, -2.406e-5
0.210, -2.387e-5
0.209, -2.367e-5
0.208, -2.347e-5
0.207, -2.325e-5
0.206, -2.303e-5
0.205, -2.280e-5
0.204, -2.255e-5
0.203, -2.230e-5
0.202, -2.204e-5
0.201, -2.177e-5
0.200, -2.150e-5
0.199, -2.123e-5
0.198, -2.096e-5
0.197, -2.069e-5
0.196, -2.042e-5
0.195, -2.015e-5
0.194, -1.988e-5
0.193, -1.960e-5
0.192, -1.935e-5
0.191, -1.909e-5
0.190, -1.883e-5
0.189, -1.859e-5
0.188, -1.835e-5
0.187, -1.811e-5
0.186, -1.788e-5
0.185, -1.765e-5
0.184, -1.742e-5
0.183, -1.720e-5
0.182, -1.699e-5
0.181, -1.677e-5
0.180, -1.655e-5
0.179, -1.633e-5
0.178, -1.612e-5
0.177, -1.593e-5
0.176, -1.575e-5
0.175, -1.557e-5
0.174, -1.538e-5
0.173, -1.520e-5
0.172, -1.502e-5
0.171, -1.485e-5
0.170, -1.468e-5
0.169, -1.452e-5
0.168, -1.437e-5
0.167, -1.422e-5
0.166, -1.407e-5
0.165, -1.392e-5
0.164, -1.378e-5
0.163, -1.363e-5
0.162, -1.349e-5
0.161, -1.335e-5
0.160, -1.321e-5
0.159, -1.308e-5
0.158, -1.296e-5
0.157, -1.284e-5
0.156, -1.271e-5
0.155, -1.259e-5
0.154, -1.246e-5
0.153, -1.235e-5
0.152, -1.224e-5
0.151, -1.213e-5
0.150, -1.203e-5
0.149, -1.192e-5
0.148, -1.181e-5
0.147, -1.170e-5
0.146, -1.160e-5
0.145, -1.150e-5
0.144, -1.141e-5
0.143, -1.132e-5
0.142, -1.124e-5
0.141, -1.114e-5
0.140, -1.105e-5
0.139, -1.096e-5
0.138, -1.088e-5
0.137, -1.079e-5
0.136, -1.070e-5
0.135, -1.061e-5
0.134, -1.054e-5
0.133, -1.048e-5
0.132, -1.041e-5
0.131, -1.033e-5
0.130, -1.026e-5
0.129, -1.018e-5
0.128, -1.012e-5
0.127, -1.005e-5
0.126, -9.962e-6
0.125, -9.892e-6
0.124, -9.834e-6
0.123, -9.761e-6
0.122, -9.688e-6
0.121, -9.624e-6
0.120, -9.565e-6
0.119, -9.502e-6
0.118, -9.440e-6
0.117, -9.375e-6
0.116, -9.307e-6
0.115, -9.244e-6
0.114, -9.184e-6
0.113, -9.130e-6
0.112, -9.077e-6
0.111, -9.025e-6
0.110, -8.964e-6
0.109, -8.909e-6
0.108, -8.862e-6
0.107, -8.813e-6
0.106, -8.764e-6
0.105, -8.708e-6
0.104, -8.647e-6
0.103, -8.592e-6
0.102, -8.540e-6
0.101, -8.485e-6
0.100, -8.430e-6
0.099, -8.386e-6
0.098, -8.341e-6
0.097, -8.297e-6
0.096, -8.248e-6
0.095, -8.206e-6
0.094, -8.163e-6
0.093, -8.118e-6
0.092, -8.072e-6
0.091, -8.027e-6
0.090, -7.990e-6
0.089, -7.953e-6
0.088, -7.917e-6
0.087, -7.875e-6
0.086, -7.834e-6
0.085, -7.789e-6
0.084, -7.745e-6
0.083, -7.706e-6
0.082, -7.662e-6
0.081, -7.625e-6
0.080, -7.601e-6
0.079, -7.562e-6
0.078, -7.528e-6
0.077, -7.491e-6
0.076, -7.446e-6
0.075, -7.408e-6
0.074, -7.370e-6
0.073, -7.336e-6
0.072, -7.304e-6
0.071, -7.269e-6
0.070, -7.230e-6
0.069, -7.197e-6
0.068, -7.162e-6
0.067, -7.125e-6
0.066, -7.094e-6
0.065, -7.059e-6
0.064, -7.035e-6
0.063, -7.002e-6
0.062, -6.963e-6
0.061, -6.930e-6
0.060, -6.903e-6
0.059, -6.871e-6
0.058, -6.851e-6
0.057, -6.821e-6
0.056, -6.796e-6
0.055, -6.766e-6
0.054, -6.744e-6
0.053, -6.708e-6
0.052, -6.670e-6
0.051, -6.638e-6
0.050, -6.603e-6
0.049, -6.575e-6
0.048, -6.557e-6
0.047, -6.531e-6
0.046, -6.500e-6
0.045, -6.475e-6
0.044, -6.453e-6
0.043, -6.416e-6
0.042, -6.394e-6
0.041, -6.374e-6
0.040, -6.354e-6
0.039, -6.331e-6
0.038, -6.301e-6
0.037, -6.278e-6
0.036, -6.258e-6
0.035, -6.237e-6
0.034, -6.218e-6
0.033, -6.192e-6
0.032, -6.164e-6
0.031, -6.142e-6
0.030, -6.116e-6
0.029, -6.090e-6
0.028, -6.064e-6
0.027, -6.047e-6
0.026, -6.032e-6
0.025, -6.014e-6
0.024, -5.998e-6
0.023, -5.978e-6
0.022, -5.954e-6
0.021, -5.932e-6
0.020, -5.907e-6
0.019, -5.896e-6
0.018, -5.880e-6
0.017, -5.843e-6
0.016, -5.817e-6
0.015, -5.798e-6
0.014, -5.777e-6
0.013, -5.755e-6
0.012, -5.740e-6
0.011, -5.723e-6
0.010, -5.706e-6
0.009, -5.689e-6
0.008, -5.676e-6
0.007, -5.660e-6
0.006, -5.639e-6
0.005, -5.624e-6
0.004, -5.607e-6
0.003, -5.587e-6
0.002, -5.566e-6
0.001, -5.545e-6
