Dec. 2, 2021   15:43:43
Cyclic Voltammetry
File: d:\Data Source:  Experiment
Instrument Model:  CHI660E
Header: 
Note: 

Init E (V) = 0
High E (V) = 0.8
Low E (V) = 0
Init P/N = P
Scan Rate (V/s) = 0.05
Segment = 6
Sample Interval (V) = 0.001
Quiet Time (sec) = 0
Sensitivity (A/V) = 1e-4

Segment 1:
Ep = 0.404V
ip = 3.239e-4A
Ah = 5.237e-4C

Segment 2:
Ep = 0.199V
ip = -6.210e-5A
Ah = -7.014e-5C

Segment 3:
Ep = 0.272V
ip = 1.202e-4A
Ah = 8.297e-5C

Segment 4:
Ep = 0.208V
ip = -3.526e-5A
Ah = -4.442e-5C

Segment 5:
Ep = 0.280V
ip = 8.057e-5A
Ah = 5.988e-5C

Segment 6:
Ep = 0.213V
ip = -2.331e-5A
Ah = -3.176e-5C

Potential/V, Current/A

0.000, 7.897e-7
0.001, 8.628e-7
0.002, 8.882e-7
0.003, 8.980e-7
0.004, 9.025e-7
0.005, 9.072e-7
0.006, 9.101e-7
0.007, 9.126e-7
0.008, 9.162e-7
0.009, 9.189e-7
0.010, 9.228e-7
0.011, 9.251e-7
0.012, 9.283e-7
0.013, 9.309e-7
0.014, 9.338e-7
0.015, 9.370e-7
0.016, 9.393e-7
0.017, 9.427e-7
0.018, 9.449e-7
0.019, 9.461e-7
0.020, 9.510e-7
0.021, 9.541e-7
0.022, 9.567e-7
0.023, 9.599e-7
0.024, 9.637e-7
0.025, 9.670e-7
0.026, 9.703e-7
0.027, 9.739e-7
0.028, 9.779e-7
0.029, 9.818e-7
0.030, 9.852e-7
0.031, 9.887e-7
0.032, 9.920e-7
0.033, 9.958e-7
0.034, 9.971e-7
0.035, 1.003e-6
0.036, 1.008e-6
0.037, 1.009e-6
0.038, 1.012e-6
0.039, 1.017e-6
0.040, 1.021e-6
0.041, 1.026e-6
0.042, 1.030e-6
0.043, 1.033e-6
0.044, 1.037e-6
0.045, 1.041e-6
0.046, 1.046e-6
0.047, 1.048e-6
0.048, 1.052e-6
0.049, 1.057e-6
0.050, 1.061e-6
0.051, 1.065e-6
0.052, 1.070e-6
0.053, 1.073e-6
0.054, 1.078e-6
0.055, 1.082e-6
0.056, 1.085e-6
0.057, 1.092e-6
0.058, 1.095e-6
0.059, 1.099e-6
0.060, 1.102e-6
0.061, 1.106e-6
0.062, 1.110e-6
0.063, 1.114e-6
0.064, 1.119e-6
0.065, 1.123e-6
0.066, 1.127e-6
0.067, 1.132e-6
0.068, 1.137e-6
0.069, 1.139e-6
0.070, 1.145e-6
0.071, 1.150e-6
0.072, 1.154e-6
0.073, 1.159e-6
0.074, 1.162e-6
0.075, 1.167e-6
0.076, 1.172e-6
0.077, 1.177e-6
0.078, 1.182e-6
0.079, 1.187e-6
0.080, 1.191e-6
0.081, 1.196e-6
0.082, 1.199e-6
0.083, 1.205e-6
0.084, 1.209e-6
0.085, 1.214e-6
0.086, 1.220e-6
0.087, 1.223e-6
0.088, 1.227e-6
0.089, 1.233e-6
0.090, 1.239e-6
0.091, 1.245e-6
0.092, 1.250e-6
0.093, 1.255e-6
0.094, 1.261e-6
0.095, 1.266e-6
0.096, 1.272e-6
0.097, 1.278e-6
0.098, 1.283e-6
0.099, 1.289e-6
0.100, 1.296e-6
0.101, 1.302e-6
0.102, 1.309e-6
0.103, 1.318e-6
0.104, 1.323e-6
0.105, 1.329e-6
0.106, 1.336e-6
0.107, 1.344e-6
0.108, 1.351e-6
0.109, 1.360e-6
0.110, 1.370e-6
0.111, 1.379e-6
0.112, 1.387e-6
0.113, 1.398e-6
0.114, 1.407e-6
0.115, 1.419e-6
0.116, 1.431e-6
0.117, 1.442e-6
0.118, 1.455e-6
0.119, 1.468e-6
0.120, 1.481e-6
0.121, 1.496e-6
0.122, 1.511e-6
0.123, 1.527e-6
0.124, 1.544e-6
0.125, 1.562e-6
0.126, 1.581e-6
0.127, 1.600e-6
0.128, 1.622e-6
0.129, 1.645e-6
0.130, 1.667e-6
0.131, 1.690e-6
0.132, 1.716e-6
0.133, 1.742e-6
0.134, 1.771e-6
0.135, 1.801e-6
0.136, 1.832e-6
0.137, 1.865e-6
0.138, 1.898e-6
0.139, 1.932e-6
0.140, 1.969e-6
0.141, 2.006e-6
0.142, 2.048e-6
0.143, 2.091e-6
0.144, 2.135e-6
0.145, 2.180e-6
0.146, 2.227e-6
0.147, 2.279e-6
0.148, 2.329e-6
0.149, 2.384e-6
0.150, 2.438e-6
0.151, 2.495e-6
0.152, 2.553e-6
0.153, 2.612e-6
0.154, 2.673e-6
0.155, 2.735e-6
0.156, 2.800e-6
0.157, 2.864e-6
0.158, 2.929e-6
0.159, 2.997e-6
0.160, 3.066e-6
0.161, 3.137e-6
0.162, 3.205e-6
0.163, 3.277e-6
0.164, 3.349e-6
0.165, 3.419e-6
0.166, 3.488e-6
0.167, 3.556e-6
0.168, 3.627e-6
0.169, 3.701e-6
0.170, 3.774e-6
0.171, 3.845e-6
0.172, 3.917e-6
0.173, 3.990e-6
0.174, 4.062e-6
0.175, 4.135e-6
0.176, 4.208e-6
0.177, 4.280e-6
0.178, 4.351e-6
0.179, 4.425e-6
0.180, 4.495e-6
0.181, 4.566e-6
0.182, 4.639e-6
0.183, 4.711e-6
0.184, 4.785e-6
0.185, 4.861e-6
0.186, 4.936e-6
0.187, 5.012e-6
0.188, 5.088e-6
0.189, 5.163e-6
0.190, 5.243e-6
0.191, 5.319e-6
0.192, 5.401e-6
0.193, 5.485e-6
0.194, 5.569e-6
0.195, 5.658e-6
0.196, 5.749e-6
0.197, 5.842e-6
0.198, 5.940e-6
0.199, 6.041e-6
0.200, 6.144e-6
0.201, 6.254e-6
0.202, 6.365e-6
0.203, 6.485e-6
0.204, 6.608e-6
0.205, 6.739e-6
0.206, 6.876e-6
0.207, 7.016e-6
0.208, 7.161e-6
0.209, 7.320e-6
0.210, 7.474e-6
0.211, 7.635e-6
0.212, 7.800e-6
0.213, 7.959e-6
0.214, 8.128e-6
0.215, 8.293e-6
0.216, 8.460e-6
0.217, 8.625e-6
0.218, 8.790e-6
0.219, 8.953e-6
0.220, 9.113e-6
0.221, 9.266e-6
0.222, 9.423e-6
0.223, 9.573e-6
0.224, 9.727e-6
0.225, 9.877e-6
0.226, 1.003e-5
0.227, 1.018e-5
0.228, 1.034e-5
0.229, 1.050e-5
0.230, 1.068e-5
0.231, 1.085e-5
0.232, 1.103e-5
0.233, 1.123e-5
0.234, 1.142e-5
0.235, 1.164e-5
0.236, 1.186e-5
0.237, 1.210e-5
0.238, 1.235e-5
0.239, 1.262e-5
0.240, 1.292e-5
0.241, 1.324e-5
0.242, 1.358e-5
0.243, 1.396e-5
0.244, 1.437e-5
0.245, 1.481e-5
0.246, 1.530e-5
0.247, 1.582e-5
0.248, 1.637e-5
0.249, 1.697e-5
0.250, 1.761e-5
0.251, 1.830e-5
0.252, 1.902e-5
0.253, 1.978e-5
0.254, 2.060e-5
0.255, 2.146e-5
0.256, 2.237e-5
0.257, 2.332e-5
0.258, 2.431e-5
0.259, 2.534e-5
0.260, 2.642e-5
0.261, 2.753e-5
0.262, 2.870e-5
0.263, 2.989e-5
0.264, 3.113e-5
0.265, 3.241e-5
0.266, 3.372e-5
0.267, 3.507e-5
0.268, 3.645e-5
0.269, 3.786e-5
0.270, 3.932e-5
0.271, 4.081e-5
0.272, 4.234e-5
0.273, 4.390e-5
0.274, 4.550e-5
0.275, 4.715e-5
0.276, 4.882e-5
0.277, 5.052e-5
0.278, 5.225e-5
0.279, 5.402e-5
0.280, 5.583e-5
0.281, 5.768e-5
0.282, 5.958e-5
0.283, 6.151e-5
0.284, 6.348e-5
0.285, 6.547e-5
0.286, 6.752e-5
0.287, 6.959e-5
0.288, 7.171e-5
0.289, 7.386e-5
0.290, 7.604e-5
0.291, 7.827e-5
0.292, 8.052e-5
0.293, 8.281e-5
0.294, 8.514e-5
0.295, 8.751e-5
0.296, 8.990e-5
0.297, 9.234e-5
0.298, 9.480e-5
0.299, 9.729e-5
0.300, 9.981e-5
0.301, 1.024e-4
0.302, 1.049e-4
0.303, 1.075e-4
0.304, 1.102e-4
0.305, 1.128e-4
0.306, 1.155e-4
0.307, 1.183e-4
0.308, 1.210e-4
0.309, 1.238e-4
0.310, 1.266e-4
0.311, 1.294e-4
0.312, 1.322e-4
0.313, 1.351e-4
0.314, 1.380e-4
0.315, 1.409e-4
0.316, 1.438e-4
0.317, 1.467e-4
0.318, 1.497e-4
0.319, 1.527e-4
0.320, 1.557e-4
0.321, 1.587e-4
0.322, 1.617e-4
0.323, 1.648e-4
0.324, 1.679e-4
0.325, 1.709e-4
0.326, 1.740e-4
0.327, 1.772e-4
0.328, 1.803e-4
0.329, 1.834e-4
0.330, 1.865e-4
0.331, 1.896e-4
0.332, 1.928e-4
0.333, 1.959e-4
0.334, 1.991e-4
0.335, 2.023e-4
0.336, 2.054e-4
0.337, 2.086e-4
0.338, 2.117e-4
0.339, 2.148e-4
0.340, 2.179e-4
0.341, 2.210e-4
0.342, 2.241e-4
0.343, 2.272e-4
0.344, 2.302e-4
0.345, 2.333e-4
0.346, 2.363e-4
0.347, 2.393e-4
0.348, 2.423e-4
0.349, 2.453e-4
0.350, 2.482e-4
0.351, 2.512e-4
0.352, 2.541e-4
0.353, 2.570e-4
0.354, 2.598e-4
0.355, 2.626e-4
0.356, 2.654e-4
0.357, 2.682e-4
0.358, 2.709e-4
0.359, 2.736e-4
0.360, 2.763e-4
0.361, 2.789e-4
0.362, 2.815e-4
0.363, 2.840e-4
0.364, 2.865e-4
0.365, 2.889e-4
0.366, 2.913e-4
0.367, 2.936e-4
0.368, 2.960e-4
0.369, 2.983e-4
0.370, 3.004e-4
0.371, 3.026e-4
0.372, 3.047e-4
0.373, 3.068e-4
0.374, 3.089e-4
0.375, 3.108e-4
0.376, 3.128e-4
0.377, 3.147e-4
0.378, 3.165e-4
0.379, 3.183e-4
0.380, 3.199e-4
0.381, 3.216e-4
0.382, 3.232e-4
0.383, 3.247e-4
0.384, 3.262e-4
0.385, 3.276e-4
0.386, 3.290e-4
0.387, 3.304e-4
0.388, 3.316e-4
0.389, 3.328e-4
0.390, 3.338e-4
0.391, 3.348e-4
0.392, 3.357e-4
0.393, 3.365e-4
0.394, 3.372e-4
0.395, 3.380e-4
0.396, 3.387e-4
0.397, 3.393e-4
0.398, 3.398e-4
0.399, 3.403e-4
0.400, 3.406e-4
0.401, 3.409e-4
0.402, 3.409e-4
0.403, 3.410e-4
0.404, 3.410e-4
0.405, 3.409e-4
0.406, 3.407e-4
0.407, 3.404e-4
0.408, 3.400e-4
0.409, 3.394e-4
0.410, 3.388e-4
0.411, 3.379e-4
0.412, 3.370e-4
0.413, 3.360e-4
0.414, 3.350e-4
0.415, 3.339e-4
0.416, 3.327e-4
0.417, 3.314e-4
0.418, 3.300e-4
0.419, 3.283e-4
0.420, 3.266e-4
0.421, 3.248e-4
0.422, 3.229e-4
0.423, 3.208e-4
0.424, 3.186e-4
0.425, 3.163e-4
0.426, 3.139e-4
0.427, 3.114e-4
0.428, 3.087e-4
0.429, 3.060e-4
0.430, 3.031e-4
0.431, 3.001e-4
0.432, 2.969e-4
0.433, 2.937e-4
0.434, 2.904e-4
0.435, 2.869e-4
0.436, 2.833e-4
0.437, 2.796e-4
0.438, 2.759e-4
0.439, 2.722e-4
0.440, 2.683e-4
0.441, 2.643e-4
0.442, 2.604e-4
0.443, 2.563e-4
0.444, 2.521e-4
0.445, 2.479e-4
0.446, 2.437e-4
0.447, 2.395e-4
0.448, 2.353e-4
0.449, 2.311e-4
0.450, 2.269e-4
0.451, 2.227e-4
0.452, 2.185e-4
0.453, 2.144e-4
0.454, 2.103e-4
0.455, 2.063e-4
0.456, 2.023e-4
0.457, 1.984e-4
0.458, 1.945e-4
0.459, 1.908e-4
0.460, 1.871e-4
0.461, 1.835e-4
0.462, 1.800e-4
0.463, 1.766e-4
0.464, 1.732e-4
0.465, 1.700e-4
0.466, 1.669e-4
0.467, 1.639e-4
0.468, 1.609e-4
0.469, 1.580e-4
0.470, 1.552e-4
0.471, 1.525e-4
0.472, 1.500e-4
0.473, 1.475e-4
0.474, 1.450e-4
0.475, 1.427e-4
0.476, 1.404e-4
0.477, 1.382e-4
0.478, 1.361e-4
0.479, 1.340e-4
0.480, 1.320e-4
0.481, 1.301e-4
0.482, 1.283e-4
0.483, 1.265e-4
0.484, 1.247e-4
0.485, 1.230e-4
0.486, 1.214e-4
0.487, 1.198e-4
0.488, 1.183e-4
0.489, 1.168e-4
0.490, 1.153e-4
0.491, 1.138e-4
0.492, 1.123e-4
0.493, 1.110e-4
0.494, 1.097e-4
0.495, 1.083e-4
0.496, 1.070e-4
0.497, 1.057e-4
0.498, 1.044e-4
0.499, 1.033e-4
0.500, 1.021e-4
0.501, 1.009e-4
0.502, 9.980e-5
0.503, 9.870e-5
0.504, 9.758e-5
0.505, 9.646e-5
0.506, 9.538e-5
0.507, 9.431e-5
0.508, 9.323e-5
0.509, 9.220e-5
0.510, 9.121e-5
0.511, 9.017e-5
0.512, 8.920e-5
0.513, 8.828e-5
0.514, 8.733e-5
0.515, 8.642e-5
0.516, 8.553e-5
0.517, 8.465e-5
0.518, 8.384e-5
0.519, 8.305e-5
0.520, 8.228e-5
0.521, 8.154e-5
0.522, 8.077e-5
0.523, 8.005e-5
0.524, 7.936e-5
0.525, 7.870e-5
0.526, 7.806e-5
0.527, 7.739e-5
0.528, 7.676e-5
0.529, 7.614e-5
0.530, 7.553e-5
0.531, 7.492e-5
0.532, 7.434e-5
0.533, 7.377e-5
0.534, 7.321e-5
0.535, 7.267e-5
0.536, 7.215e-5
0.537, 7.163e-5
0.538, 7.112e-5
0.539, 7.063e-5
0.540, 7.013e-5
0.541, 6.965e-5
0.542, 6.919e-5
0.543, 6.875e-5
0.544, 6.835e-5
0.545, 6.795e-5
0.546, 6.753e-5
0.547, 6.714e-5
0.548, 6.673e-5
0.549, 6.634e-5
0.550, 6.602e-5
0.551, 6.569e-5
0.552, 6.536e-5
0.553, 6.504e-5
0.554, 6.472e-5
0.555, 6.442e-5
0.556, 6.409e-5
0.557, 6.376e-5
0.558, 6.346e-5
0.559, 6.314e-5
0.560, 6.286e-5
0.561, 6.260e-5
0.562, 6.231e-5
0.563, 6.204e-5
0.564, 6.178e-5
0.565, 6.152e-5
0.566, 6.125e-5
0.567, 6.098e-5
0.568, 6.072e-5
0.569, 6.050e-5
0.570, 6.029e-5
0.571, 6.010e-5
0.572, 5.989e-5
0.573, 5.972e-5
0.574, 5.956e-5
0.575, 5.941e-5
0.576, 5.927e-5
0.577, 5.914e-5
0.578, 5.899e-5
0.579, 5.888e-5
0.580, 5.875e-5
0.581, 5.866e-5
0.582, 5.856e-5
0.583, 5.848e-5
0.584, 5.841e-5
0.585, 5.831e-5
0.586, 5.823e-5
0.587, 5.817e-5
0.588, 5.814e-5
0.589, 5.809e-5
0.590, 5.805e-5
0.591, 5.801e-5
0.592, 5.798e-5
0.593, 5.795e-5
0.594, 5.793e-5
0.595, 5.790e-5
0.596, 5.788e-5
0.597, 5.787e-5
0.598, 5.790e-5
0.599, 5.791e-5
0.600, 5.792e-5
0.601, 5.792e-5
0.602, 5.795e-5
0.603, 5.797e-5
0.604, 5.799e-5
0.605, 5.803e-5
0.606, 5.806e-5
0.607, 5.808e-5
0.608, 5.813e-5
0.609, 5.818e-5
0.610, 5.823e-5
0.611, 5.831e-5
0.612, 5.838e-5
0.613, 5.844e-5
0.614, 5.853e-5
0.615, 5.859e-5
0.616, 5.865e-5
0.617, 5.877e-5
0.618, 5.887e-5
0.619, 5.897e-5
0.620, 5.907e-5
0.621, 5.919e-5
0.622, 5.933e-5
0.623, 5.946e-5
0.624, 5.959e-5
0.625, 5.973e-5
0.626, 5.989e-5
0.627, 6.005e-5
0.628, 6.021e-5
0.629, 6.038e-5
0.630, 6.054e-5
0.631, 6.070e-5
0.632, 6.087e-5
0.633, 6.107e-5
0.634, 6.128e-5
0.635, 6.150e-5
0.636, 6.169e-5
0.637, 6.192e-5
0.638, 6.215e-5
0.639, 6.238e-5
0.640, 6.264e-5
0.641, 6.288e-5
0.642, 6.313e-5
0.643, 6.339e-5
0.644, 6.367e-5
0.645, 6.400e-5
0.646, 6.429e-5
0.647, 6.459e-5
0.648, 6.491e-5
0.649, 6.524e-5
0.650, 6.559e-5
0.651, 6.596e-5
0.652, 6.633e-5
0.653, 6.670e-5
0.654, 6.711e-5
0.655, 6.752e-5
0.656, 6.794e-5
0.657, 6.838e-5
0.658, 6.884e-5
0.659, 6.933e-5
0.660, 6.982e-5
0.661, 7.031e-5
0.662, 7.081e-5
0.663, 7.129e-5
0.664, 7.181e-5
0.665, 7.236e-5
0.666, 7.296e-5
0.667, 7.357e-5
0.668, 7.416e-5
0.669, 7.477e-5
0.670, 7.539e-5
0.671, 7.602e-5
0.672, 7.666e-5
0.673, 7.734e-5
0.674, 7.806e-5
0.675, 7.878e-5
0.676, 7.951e-5
0.677, 8.023e-5
0.678, 8.101e-5
0.679, 8.179e-5
0.680, 8.259e-5
0.681, 8.343e-5
0.682, 8.430e-5
0.683, 8.517e-5
0.684, 8.606e-5
0.685, 8.698e-5
0.686, 8.794e-5
0.687, 8.890e-5
0.688, 8.989e-5
0.689, 9.088e-5
0.690, 9.187e-5
0.691, 9.291e-5
0.692, 9.396e-5
0.693, 9.504e-5
0.694, 9.616e-5
0.695, 9.732e-5
0.696, 9.850e-5
0.697, 9.970e-5
0.698, 1.009e-4
0.699, 1.021e-4
0.700, 1.034e-4
0.701, 1.046e-4
0.702, 1.060e-4
0.703, 1.073e-4
0.704, 1.087e-4
0.705, 1.101e-4
0.706, 1.115e-4
0.707, 1.129e-4
0.708, 1.143e-4
0.709, 1.158e-4
0.710, 1.173e-4
0.711, 1.188e-4
0.712, 1.204e-4
0.713, 1.220e-4
0.714, 1.237e-4
0.715, 1.253e-4
0.716, 1.270e-4
0.717, 1.287e-4
0.718, 1.305e-4
0.719, 1.322e-4
0.720, 1.340e-4
0.721, 1.357e-4
0.722, 1.375e-4
0.723, 1.393e-4
0.724, 1.412e-4
0.725, 1.430e-4
0.726, 1.449e-4
0.727, 1.468e-4
0.728, 1.488e-4
0.729, 1.507e-4
0.730, 1.527e-4
0.731, 1.548e-4
0.732, 1.567e-4
0.733, 1.588e-4
0.734, 1.608e-4
0.735, 1.629e-4
0.736, 1.651e-4
0.737, 1.672e-4
0.738, 1.694e-4
0.739, 1.716e-4
0.740, 1.738e-4
0.741, 1.760e-4
0.742, 1.783e-4
0.743, 1.806e-4
0.744, 1.828e-4
0.745, 1.851e-4
0.746, 1.874e-4
0.747, 1.898e-4
0.748, 1.921e-4
0.749, 1.946e-4
0.750, 1.970e-4
0.751, 1.994e-4
0.752, 2.018e-4
0.753, 2.044e-4
0.754, 2.069e-4
0.755, 2.095e-4
0.756, 2.120e-4
0.757, 2.145e-4
0.758, 2.171e-4
0.759, 2.198e-4
0.760, 2.225e-4
0.761, 2.251e-4
0.762, 2.277e-4
0.763, 2.304e-4
0.764, 2.331e-4
0.765, 2.359e-4
0.766, 2.386e-4
0.767, 2.414e-4
0.768, 2.442e-4
0.769, 2.470e-4
0.770, 2.498e-4
0.771, 2.526e-4
0.772, 2.555e-4
0.773, 2.584e-4
0.774, 2.614e-4
0.775, 2.644e-4
0.776, 2.673e-4
0.777, 2.702e-4
0.778, 2.732e-4
0.779, 2.762e-4
0.780, 2.791e-4
0.781, 2.821e-4
0.782, 2.852e-4
0.783, 2.882e-4
0.784, 2.912e-4
0.785, 2.943e-4
0.786, 2.973e-4
0.787, 3.003e-4
0.788, 3.033e-4
0.789, 3.064e-4
0.790, 3.096e-4
0.791, 3.128e-4
0.792, 3.159e-4
0.793, 3.190e-4
0.794, 3.221e-4
0.795, 3.252e-4
0.796, 3.284e-4
0.797, 3.316e-4
0.798, 3.348e-4
0.799, 3.380e-4
0.800, 3.406e-4
0.799, 3.378e-4
0.798, 3.320e-4
0.797, 3.263e-4
0.796, 3.208e-4
0.795, 3.156e-4
0.794, 3.105e-4
0.793, 3.054e-4
0.792, 3.004e-4
0.791, 2.954e-4
0.790, 2.906e-4
0.789, 2.857e-4
0.788, 2.809e-4
0.787, 2.763e-4
0.786, 2.717e-4
0.785, 2.671e-4
0.784, 2.626e-4
0.783, 2.582e-4
0.782, 2.538e-4
0.781, 2.493e-4
0.780, 2.450e-4
0.779, 2.407e-4
0.778, 2.365e-4
0.777, 2.323e-4
0.776, 2.283e-4
0.775, 2.242e-4
0.774, 2.202e-4
0.773, 2.162e-4
0.772, 2.122e-4
0.771, 2.083e-4
0.770, 2.045e-4
0.769, 2.007e-4
0.768, 1.969e-4
0.767, 1.932e-4
0.766, 1.896e-4
0.765, 1.859e-4
0.764, 1.824e-4
0.763, 1.788e-4
0.762, 1.754e-4
0.761, 1.720e-4
0.760, 1.685e-4
0.759, 1.652e-4
0.758, 1.618e-4
0.757, 1.586e-4
0.756, 1.554e-4
0.755, 1.522e-4
0.754, 1.491e-4
0.753, 1.460e-4
0.752, 1.429e-4
0.751, 1.398e-4
0.750, 1.369e-4
0.749, 1.339e-4
0.748, 1.310e-4
0.747, 1.282e-4
0.746, 1.254e-4
0.745, 1.226e-4
0.744, 1.199e-4
0.743, 1.172e-4
0.742, 1.145e-4
0.741, 1.119e-4
0.740, 1.094e-4
0.739, 1.068e-4
0.738, 1.043e-4
0.737, 1.019e-4
0.736, 9.943e-5
0.735, 9.705e-5
0.734, 9.470e-5
0.733, 9.236e-5
0.732, 9.009e-5
0.731, 8.786e-5
0.730, 8.565e-5
0.729, 8.349e-5
0.728, 8.137e-5
0.727, 7.930e-5
0.726, 7.724e-5
0.725, 7.522e-5
0.724, 7.324e-5
0.723, 7.128e-5
0.722, 6.934e-5
0.721, 6.746e-5
0.720, 6.562e-5
0.719, 6.380e-5
0.718, 6.201e-5
0.717, 6.025e-5
0.716, 5.852e-5
0.715, 5.684e-5
0.714, 5.521e-5
0.713, 5.361e-5
0.712, 5.204e-5
0.711, 5.051e-5
0.710, 4.901e-5
0.709, 4.754e-5
0.708, 4.609e-5
0.707, 4.466e-5
0.706, 4.328e-5
0.705, 4.192e-5
0.704, 4.059e-5
0.703, 3.929e-5
0.702, 3.802e-5
0.701, 3.677e-5
0.700, 3.556e-5
0.699, 3.438e-5
0.698, 3.322e-5
0.697, 3.210e-5
0.696, 3.098e-5
0.695, 2.990e-5
0.694, 2.885e-5
0.693, 2.782e-5
0.692, 2.681e-5
0.691, 2.581e-5
0.690, 2.485e-5
0.689, 2.393e-5
0.688, 2.300e-5
0.687, 2.211e-5
0.686, 2.124e-5
0.685, 2.039e-5
0.684, 1.956e-5
0.683, 1.875e-5
0.682, 1.797e-5
0.681, 1.721e-5
0.680, 1.645e-5
0.679, 1.572e-5
0.678, 1.500e-5
0.677, 1.430e-5
0.676, 1.363e-5
0.675, 1.297e-5
0.674, 1.234e-5
0.673, 1.172e-5
0.672, 1.111e-5
0.671, 1.051e-5
0.670, 9.930e-6
0.669, 9.362e-6
0.668, 8.828e-6
0.667, 8.285e-6
0.666, 7.752e-6
0.665, 7.231e-6
0.664, 6.723e-6
0.663, 6.253e-6
0.662, 5.785e-6
0.661, 5.329e-6
0.660, 4.893e-6
0.659, 4.454e-6
0.658, 4.026e-6
0.657, 3.624e-6
0.656, 3.220e-6
0.655, 2.831e-6
0.654, 2.461e-6
0.653, 2.084e-6
0.652, 1.722e-6
0.651, 1.366e-6
0.650, 1.032e-6
0.649, 7.083e-7
0.648, 3.762e-7
0.647, 6.398e-8
0.646, -2.417e-7
0.645, -5.537e-7
0.644, -8.428e-7
0.643, -1.138e-6
0.642, -1.420e-6
0.641, -1.681e-6
0.640, -1.953e-6
0.639, -2.209e-6
0.638, -2.454e-6
0.637, -2.699e-6
0.636, -2.934e-6
0.635, -3.165e-6
0.634, -3.393e-6
0.633, -3.612e-6
0.632, -3.829e-6
0.631, -4.031e-6
0.630, -4.239e-6
0.629, -4.448e-6
0.628, -4.632e-6
0.627, -4.832e-6
0.626, -5.023e-6
0.625, -5.193e-6
0.624, -5.372e-6
0.623, -5.538e-6
0.622, -5.697e-6
0.621, -5.869e-6
0.620, -6.023e-6
0.619, -6.185e-6
0.618, -6.336e-6
0.617, -6.476e-6
0.616, -6.617e-6
0.615, -6.757e-6
0.614, -6.910e-6
0.613, -7.051e-6
0.612, -7.164e-6
0.611, -7.282e-6
0.610, -7.401e-6
0.609, -7.506e-6
0.608, -7.635e-6
0.607, -7.744e-6
0.606, -7.849e-6
0.605, -7.956e-6
0.604, -8.048e-6
0.603, -8.147e-6
0.602, -8.247e-6
0.601, -8.347e-6
0.600, -8.440e-6
0.599, -8.518e-6
0.598, -8.600e-6
0.597, -8.698e-6
0.596, -8.776e-6
0.595, -8.858e-6
0.594, -8.934e-6
0.593, -9.001e-6
0.592, -9.076e-6
0.591, -9.135e-6
0.590, -9.194e-6
0.589, -9.267e-6
0.588, -9.325e-6
0.587, -9.392e-6
0.586, -9.449e-6
0.585, -9.496e-6
0.584, -9.553e-6
0.583, -9.596e-6
0.582, -9.649e-6
0.581, -9.700e-6
0.580, -9.725e-6
0.579, -9.770e-6
0.578, -9.811e-6
0.577, -9.837e-6
0.576, -9.871e-6
0.575, -9.904e-6
0.574, -9.932e-6
0.573, -9.962e-6
0.572, -9.990e-6
0.571, -1.002e-5
0.570, -1.004e-5
0.569, -1.006e-5
0.568, -1.009e-5
0.567, -1.010e-5
0.566, -1.012e-5
0.565, -1.015e-5
0.564, -1.016e-5
0.563, -1.019e-5
0.562, -1.021e-5
0.561, -1.021e-5
0.560, -1.023e-5
0.559, -1.023e-5
0.558, -1.023e-5
0.557, -1.024e-5
0.556, -1.024e-5
0.555, -1.025e-5
0.554, -1.025e-5
0.553, -1.026e-5
0.552, -1.026e-5
0.551, -1.026e-5
0.550, -1.026e-5
0.549, -1.026e-5
0.548, -1.024e-5
0.547, -1.025e-5
0.546, -1.025e-5
0.545, -1.023e-5
0.544, -1.023e-5
0.543, -1.022e-5
0.542, -1.021e-5
0.541, -1.021e-5
0.540, -1.019e-5
0.539, -1.018e-5
0.538, -1.018e-5
0.537, -1.017e-5
0.536, -1.017e-5
0.535, -1.016e-5
0.534, -1.015e-5
0.533, -1.014e-5
0.532, -1.012e-5
0.531, -1.012e-5
0.530, -1.011e-5
0.529, -1.010e-5
0.528, -1.009e-5
0.527, -1.007e-5
0.526, -1.006e-5
0.525, -1.004e-5
0.524, -1.003e-5
0.523, -1.001e-5
0.522, -9.994e-6
0.521, -9.981e-6
0.520, -9.980e-6
0.519, -9.962e-6
0.518, -9.956e-6
0.517, -9.951e-6
0.516, -9.923e-6
0.515, -9.907e-6
0.514, -9.891e-6
0.513, -9.872e-6
0.512, -9.878e-6
0.511, -9.888e-6
0.510, -9.857e-6
0.509, -9.845e-6
0.508, -9.825e-6
0.507, -9.812e-6
0.506, -9.799e-6
0.505, -9.788e-6
0.504, -9.785e-6
0.503, -9.767e-6
0.502, -9.757e-6
0.501, -9.748e-6
0.500, -9.724e-6
0.499, -9.723e-6
0.498, -9.715e-6
0.497, -9.689e-6
0.496, -9.686e-6
0.495, -9.673e-6
0.494, -9.661e-6
0.493, -9.661e-6
0.492, -9.648e-6
0.491, -9.640e-6
0.490, -9.637e-6
0.489, -9.619e-6
0.488, -9.620e-6
0.487, -9.604e-6
0.486, -9.603e-6
0.485, -9.608e-6
0.484, -9.591e-6
0.483, -9.587e-6
0.482, -9.574e-6
0.481, -9.553e-6
0.480, -9.553e-6
0.479, -9.550e-6
0.478, -9.534e-6
0.477, -9.536e-6
0.476, -9.531e-6
0.475, -9.527e-6
0.474, -9.524e-6
0.473, -9.527e-6
0.472, -9.530e-6
0.471, -9.522e-6
0.470, -9.521e-6
0.469, -9.530e-6
0.468, -9.531e-6
0.467, -9.535e-6
0.466, -9.538e-6
0.465, -9.536e-6
0.464, -9.540e-6
0.463, -9.538e-6
0.462, -9.540e-6
0.461, -9.552e-6
0.460, -9.567e-6
0.459, -9.566e-6
0.458, -9.564e-6
0.457, -9.565e-6
0.456, -9.574e-6
0.455, -9.581e-6
0.454, -9.595e-6
0.453, -9.606e-6
0.452, -9.605e-6
0.451, -9.619e-6
0.450, -9.627e-6
0.449, -9.626e-6
0.448, -9.648e-6
0.447, -9.664e-6
0.446, -9.667e-6
0.445, -9.681e-6
0.444, -9.684e-6
0.443, -9.701e-6
0.442, -9.721e-6
0.441, -9.728e-6
0.440, -9.744e-6
0.439, -9.756e-6
0.438, -9.772e-6
0.437, -9.795e-6
0.436, -9.795e-6
0.435, -9.829e-6
0.434, -9.854e-6
0.433, -9.859e-6
0.432, -9.882e-6
0.431, -9.899e-6
0.430, -9.914e-6
0.429, -9.936e-6
0.428, -9.956e-6
0.427, -9.981e-6
0.426, -9.998e-6
0.425, -1.002e-5
0.424, -1.005e-5
0.423, -1.007e-5
0.422, -1.010e-5
0.421, -1.013e-5
0.420, -1.014e-5
0.419, -1.016e-5
0.418, -1.019e-5
0.417, -1.022e-5
0.416, -1.025e-5
0.415, -1.028e-5
0.414, -1.030e-5
0.413, -1.033e-5
0.412, -1.034e-5
0.411, -1.038e-5
0.410, -1.041e-5
0.409, -1.043e-5
0.408, -1.047e-5
0.407, -1.049e-5
0.406, -1.052e-5
0.405, -1.056e-5
0.404, -1.058e-5
0.403, -1.062e-5
0.402, -1.066e-5
0.401, -1.069e-5
0.400, -1.073e-5
0.399, -1.076e-5
0.398, -1.079e-5
0.397, -1.084e-5
0.396, -1.087e-5
0.395, -1.092e-5
0.394, -1.096e-5
0.393, -1.099e-5
0.392, -1.104e-5
0.391, -1.107e-5
0.390, -1.112e-5
0.389, -1.116e-5
0.388, -1.119e-5
0.387, -1.125e-5
0.386, -1.129e-5
0.385, -1.133e-5
0.384, -1.139e-5
0.383, -1.143e-5
0.382, -1.147e-5
0.381, -1.152e-5
0.380, -1.157e-5
0.379, -1.162e-5
0.378, -1.167e-5
0.377, -1.172e-5
0.376, -1.178e-5
0.375, -1.182e-5
0.374, -1.188e-5
0.373, -1.193e-5
0.372, -1.198e-5
0.371, -1.204e-5
0.370, -1.211e-5
0.369, -1.215e-5
0.368, -1.222e-5
0.367, -1.228e-5
0.366, -1.234e-5
0.365, -1.240e-5
0.364, -1.247e-5
0.363, -1.253e-5
0.362, -1.259e-5
0.361, -1.266e-5
0.360, -1.274e-5
0.359, -1.281e-5
0.358, -1.289e-5
0.357, -1.297e-5
0.356, -1.302e-5
0.355, -1.310e-5
0.354, -1.317e-5
0.353, -1.325e-5
0.352, -1.334e-5
0.351, -1.342e-5
0.350, -1.349e-5
0.349, -1.358e-5
0.348, -1.365e-5
0.347, -1.374e-5
0.346, -1.382e-5
0.345, -1.392e-5
0.344, -1.400e-5
0.343, -1.409e-5
0.342, -1.419e-5
0.341, -1.429e-5
0.340, -1.437e-5
0.339, -1.446e-5
0.338, -1.456e-5
0.337, -1.466e-5
0.336, -1.477e-5
0.335, -1.487e-5
0.334, -1.498e-5
0.333, -1.509e-5
0.332, -1.520e-5
0.331, -1.531e-5
0.330, -1.542e-5
0.329, -1.552e-5
0.328, -1.564e-5
0.327, -1.576e-5
0.326, -1.589e-5
0.325, -1.602e-5
0.324, -1.613e-5
0.323, -1.627e-5
0.322, -1.641e-5
0.321, -1.653e-5
0.320, -1.668e-5
0.319, -1.681e-5
0.318, -1.694e-5
0.317, -1.710e-5
0.316, -1.724e-5
0.315, -1.739e-5
0.314, -1.754e-5
0.313, -1.769e-5
0.312, -1.786e-5
0.311, -1.802e-5
0.310, -1.818e-5
0.309, -1.835e-5
0.308, -1.851e-5
0.307, -1.871e-5
0.306, -1.891e-5
0.305, -1.907e-5
0.304, -1.925e-5
0.303, -1.943e-5
0.302, -1.962e-5
0.301, -1.982e-5
0.300, -2.003e-5
0.299, -2.023e-5
0.298, -2.044e-5
0.297, -2.064e-5
0.296, -2.086e-5
0.295, -2.108e-5
0.294, -2.131e-5
0.293, -2.154e-5
0.292, -2.176e-5
0.291, -2.201e-5
0.290, -2.224e-5
0.289, -2.249e-5
0.288, -2.276e-5
0.287, -2.302e-5
0.286, -2.328e-5
0.285, -2.355e-5
0.284, -2.381e-5
0.283, -2.410e-5
0.282, -2.441e-5
0.281, -2.470e-5
0.280, -2.500e-5
0.279, -2.530e-5
0.278, -2.561e-5
0.277, -2.594e-5
0.276, -2.626e-5
0.275, -2.659e-5
0.274, -2.693e-5
0.273, -2.727e-5
0.272, -2.763e-5
0.271, -2.798e-5
0.270, -2.835e-5
0.269, -2.874e-5
0.268, -2.912e-5
0.267, -2.952e-5
0.266, -2.991e-5
0.265, -3.032e-5
0.264, -3.074e-5
0.263, -3.117e-5
0.262, -3.161e-5
0.261, -3.206e-5
0.260, -3.252e-5
0.259, -3.299e-5
0.258, -3.347e-5
0.257, -3.395e-5
0.256, -3.446e-5
0.255, -3.499e-5
0.254, -3.551e-5
0.253, -3.602e-5
0.252, -3.655e-5
0.251, -3.711e-5
0.250, -3.768e-5
0.249, -3.825e-5
0.248, -3.884e-5
0.247, -3.942e-5
0.246, -4.005e-5
0.245, -4.069e-5
0.244, -4.132e-5
0.243, -4.197e-5
0.242, -4.264e-5
0.241, -4.330e-5
0.240, -4.399e-5
0.239, -4.468e-5
0.238, -4.541e-5
0.237, -4.615e-5
0.236, -4.691e-5
0.235, -4.766e-5
0.234, -4.844e-5
0.233, -4.921e-5
0.232, -4.999e-5
0.231, -5.080e-5
0.230, -5.163e-5
0.229, -5.247e-5
0.228, -5.331e-5
0.227, -5.416e-5
0.226, -5.502e-5
0.225, -5.588e-5
0.224, -5.676e-5
0.223, -5.764e-5
0.222, -5.851e-5
0.221, -5.941e-5
0.220, -6.031e-5
0.219, -6.122e-5
0.218, -6.212e-5
0.217, -6.302e-5
0.216, -6.391e-5
0.215, -6.478e-5
0.214, -6.565e-5
0.213, -6.651e-5
0.212, -6.734e-5
0.211, -6.815e-5
0.210, -6.894e-5
0.209, -6.971e-5
0.208, -7.044e-5
0.207, -7.110e-5
0.206, -7.171e-5
0.205, -7.229e-5
0.204, -7.279e-5
0.203, -7.322e-5
0.202, -7.354e-5
0.201, -7.376e-5
0.200, -7.389e-5
0.199, -7.390e-5
0.198, -7.376e-5
0.197, -7.345e-5
0.196, -7.297e-5
0.195, -7.231e-5
0.194, -7.146e-5
0.193, -7.042e-5
0.192, -6.919e-5
0.191, -6.776e-5
0.190, -6.616e-5
0.189, -6.443e-5
0.188, -6.255e-5
0.187, -6.058e-5
0.186, -5.857e-5
0.185, -5.651e-5
0.184, -5.444e-5
0.183, -5.243e-5
0.182, -5.047e-5
0.181, -4.859e-5
0.180, -4.677e-5
0.179, -4.506e-5
0.178, -4.344e-5
0.177, -4.190e-5
0.176, -4.046e-5
0.175, -3.910e-5
0.174, -3.782e-5
0.173, -3.662e-5
0.172, -3.548e-5
0.171, -3.441e-5
0.170, -3.340e-5
0.169, -3.244e-5
0.168, -3.153e-5
0.167, -3.068e-5
0.166, -2.987e-5
0.165, -2.911e-5
0.164, -2.838e-5
0.163, -2.769e-5
0.162, -2.702e-5
0.161, -2.639e-5
0.160, -2.579e-5
0.159, -2.522e-5
0.158, -2.470e-5
0.157, -2.423e-5
0.156, -2.365e-5
0.155, -2.314e-5
0.154, -2.268e-5
0.153, -2.223e-5
0.152, -2.181e-5
0.151, -2.141e-5
0.150, -2.101e-5
0.149, -2.063e-5
0.148, -2.027e-5
0.147, -1.992e-5
0.146, -1.957e-5
0.145, -1.924e-5
0.144, -1.892e-5
0.143, -1.860e-5
0.142, -1.829e-5
0.141, -1.801e-5
0.140, -1.774e-5
0.139, -1.747e-5
0.138, -1.721e-5
0.137, -1.696e-5
0.136, -1.671e-5
0.135, -1.648e-5
0.134, -1.626e-5
0.133, -1.603e-5
0.132, -1.581e-5
0.131, -1.559e-5
0.130, -1.539e-5
0.129, -1.519e-5
0.128, -1.499e-5
0.127, -1.481e-5
0.126, -1.462e-5
0.125, -1.444e-5
0.124, -1.427e-5
0.123, -1.410e-5
0.122, -1.393e-5
0.121, -1.378e-5
0.120, -1.363e-5
0.119, -1.348e-5
0.118, -1.333e-5
0.117, -1.318e-5
0.116, -1.304e-5
0.115, -1.290e-5
0.114, -1.276e-5
0.113, -1.262e-5
0.112, -1.249e-5
0.111, -1.236e-5
0.110, -1.224e-5
0.109, -1.212e-5
0.108, -1.201e-5
0.107, -1.189e-5
0.106, -1.178e-5
0.105, -1.167e-5
0.104, -1.155e-5
0.103, -1.144e-5
0.102, -1.133e-5
0.101, -1.123e-5
0.100, -1.113e-5
0.099, -1.103e-5
0.098, -1.094e-5
0.097, -1.084e-5
0.096, -1.075e-5
0.095, -1.065e-5
0.094, -1.057e-5
0.093, -1.048e-5
0.092, -1.039e-5
0.091, -1.031e-5
0.090, -1.023e-5
0.089, -1.015e-5
0.088, -1.007e-5
0.087, -9.988e-6
0.086, -9.908e-6
0.085, -9.834e-6
0.084, -9.762e-6
0.083, -9.688e-6
0.082, -9.618e-6
0.081, -9.544e-6
0.080, -9.473e-6
0.079, -9.402e-6
0.078, -9.338e-6
0.077, -9.269e-6
0.076, -9.205e-6
0.075, -9.148e-6
0.074, -9.096e-6
0.073, -9.035e-6
0.072, -8.972e-6
0.071, -8.911e-6
0.070, -8.849e-6
0.069, -8.787e-6
0.068, -8.727e-6
0.067, -8.670e-6
0.066, -8.622e-6
0.065, -8.568e-6
0.064, -8.521e-6
0.063, -8.462e-6
0.062, -8.407e-6
0.061, -8.362e-6
0.060, -8.305e-6
0.059, -8.256e-6
0.058, -8.210e-6
0.057, -8.162e-6
0.056, -8.115e-6
0.055, -8.063e-6
0.054, -8.010e-6
0.053, -7.963e-6
0.052, -7.925e-6
0.051, -7.884e-6
0.050, -7.841e-6
0.049, -7.796e-6
0.048, -7.751e-6
0.047, -7.702e-6
0.046, -7.659e-6
0.045, -7.619e-6
0.044, -7.576e-6
0.043, -7.534e-6
0.042, -7.497e-6
0.041, -7.464e-6
0.040, -7.429e-6
0.039, -7.388e-6
0.038, -7.346e-6
0.037, -7.307e-6
0.036, -7.268e-6
0.035, -7.233e-6
0.034, -7.202e-6
0.033, -7.167e-6
0.032, -7.133e-6
0.031, -7.101e-6
0.030, -7.065e-6
0.029, -7.032e-6
0.028, -6.998e-6
0.027, -6.971e-6
0.026, -6.947e-6
0.025, -6.918e-6
0.024, -6.884e-6
0.023, -6.851e-6
0.022, -6.813e-6
0.021, -6.779e-6
0.020, -6.753e-6
0.019, -6.723e-6
0.018, -6.697e-6
0.017, -6.671e-6
0.016, -6.647e-6
0.015, -6.622e-6
0.014, -6.597e-6
0.013, -6.572e-6
0.012, -6.548e-6
0.011, -6.523e-6
0.010, -6.500e-6
0.009, -6.476e-6
0.008, -6.448e-6
0.007, -6.422e-6
0.006, -6.400e-6
0.005, -6.376e-6
0.004, -6.350e-6
0.003, -6.327e-6
0.002, -6.306e-6
0.001, -6.282e-6
0.000, -6.195e-6
0.001, -5.942e-6
0.002, -5.787e-6
0.003, -5.686e-6
0.004, -5.599e-6
0.005, -5.517e-6
0.006, -5.437e-6
0.007, -5.364e-6
0.008, -5.291e-6
0.009, -5.220e-6
0.010, -5.158e-6
0.011, -5.093e-6
0.012, -5.029e-6
0.013, -4.970e-6
0.014, -4.908e-6
0.015, -4.852e-6
0.016, -4.792e-6
0.017, -4.736e-6
0.018, -4.683e-6
0.019, -4.630e-6
0.020, -4.580e-6
0.021, -4.533e-6
0.022, -4.481e-6
0.023, -4.433e-6
0.024, -4.383e-6
0.025, -4.333e-6
0.026, -4.283e-6
0.027, -4.239e-6
0.028, -4.195e-6
0.029, -4.149e-6
0.030, -4.103e-6
0.031, -4.063e-6
0.032, -4.020e-6
0.033, -3.978e-6
0.034, -3.937e-6
0.035, -3.898e-6
0.036, -3.858e-6
0.037, -3.820e-6
0.038, -3.780e-6
0.039, -3.742e-6
0.040, -3.703e-6
0.041, -3.669e-6
0.042, -3.635e-6
0.043, -3.601e-6
0.044, -3.573e-6
0.045, -3.541e-6
0.046, -3.498e-6
0.047, -3.461e-6
0.048, -3.422e-6
0.049, -3.387e-6
0.050, -3.352e-6
0.051, -3.318e-6
0.052, -3.284e-6
0.053, -3.255e-6
0.054, -3.221e-6
0.055, -3.193e-6
0.056, -3.162e-6
0.057, -3.131e-6
0.058, -3.099e-6
0.059, -3.065e-6
0.060, -3.033e-6
0.061, -3.002e-6
0.062, -2.974e-6
0.063, -2.945e-6
0.064, -2.917e-6
0.065, -2.885e-6
0.066, -2.856e-6
0.067, -2.827e-6
0.068, -2.796e-6
0.069, -2.767e-6
0.070, -2.738e-6
0.071, -2.710e-6
0.072, -2.683e-6
0.073, -2.658e-6
0.074, -2.628e-6
0.075, -2.602e-6
0.076, -2.573e-6
0.077, -2.548e-6
0.078, -2.522e-6
0.079, -2.493e-6
0.080, -2.462e-6
0.081, -2.433e-6
0.082, -2.410e-6
0.083, -2.387e-6
0.084, -2.364e-6
0.085, -2.338e-6
0.086, -2.312e-6
0.087, -2.287e-6
0.088, -2.261e-6
0.089, -2.231e-6
0.090, -2.205e-6
0.091, -2.180e-6
0.092, -2.155e-6
0.093, -2.130e-6
0.094, -2.106e-6
0.095, -2.086e-6
0.096, -2.059e-6
0.097, -2.035e-6
0.098, -2.011e-6
0.099, -1.985e-6
0.100, -1.958e-6
0.101, -1.935e-6
0.102, -1.911e-6
0.103, -1.886e-6
0.104, -1.862e-6
0.105, -1.837e-6
0.106, -1.814e-6
0.107, -1.790e-6
0.108, -1.767e-6
0.109, -1.742e-6
0.110, -1.719e-6
0.111, -1.695e-6
0.112, -1.668e-6
0.113, -1.643e-6
0.114, -1.620e-6
0.115, -1.594e-6
0.116, -1.569e-6
0.117, -1.548e-6
0.118, -1.528e-6
0.119, -1.506e-6
0.120, -1.481e-6
0.121, -1.456e-6
0.122, -1.432e-6
0.123, -1.410e-6
0.124, -1.388e-6
0.125, -1.363e-6
0.126, -1.339e-6
0.127, -1.318e-6
0.128, -1.296e-6
0.129, -1.271e-6
0.130, -1.250e-6
0.131, -1.229e-6
0.132, -1.207e-6
0.133, -1.182e-6
0.134, -1.159e-6
0.135, -1.135e-6
0.136, -1.113e-6
0.137, -1.091e-6
0.138, -1.066e-6
0.139, -1.041e-6
0.140, -1.020e-6
0.141, -9.988e-7
0.142, -9.774e-7
0.143, -9.552e-7
0.144, -9.317e-7
0.145, -9.059e-7
0.146, -8.799e-7
0.147, -8.532e-7
0.148, -8.266e-7
0.149, -8.017e-7
0.150, -7.760e-7
0.151, -7.508e-7
0.152, -7.254e-7
0.153, -7.006e-7
0.154, -6.763e-7
0.155, -6.505e-7
0.156, -6.213e-7
0.157, -5.939e-7
0.158, -5.656e-7
0.159, -5.386e-7
0.160, -5.109e-7
0.161, -4.821e-7
0.162, -4.538e-7
0.163, -4.259e-7
0.164, -3.987e-7
0.165, -3.698e-7
0.166, -3.393e-7
0.167, -3.082e-7
0.168, -2.768e-7
0.169, -2.428e-7
0.170, -2.124e-7
0.171, -1.780e-7
0.172, -1.427e-7
0.173, -1.058e-7
0.174, -6.864e-8
0.175, -3.315e-8
0.176, 6.370e-9
0.177, 4.697e-8
0.178, 8.748e-8
0.179, 1.334e-7
0.180, 1.807e-7
0.181, 2.250e-7
0.182, 2.741e-7
0.183, 3.255e-7
0.184, 3.796e-7
0.185, 4.370e-7
0.186, 4.961e-7
0.187, 5.586e-7
0.188, 6.256e-7
0.189, 6.954e-7
0.190, 7.683e-7
0.191, 8.466e-7
0.192, 9.338e-7
0.193, 1.029e-6
0.194, 1.132e-6
0.195, 1.240e-6
0.196, 1.356e-6
0.197, 1.487e-6
0.198, 1.637e-6
0.199, 1.801e-6
0.200, 1.980e-6
0.201, 2.186e-6
0.202, 2.417e-6
0.203, 2.681e-6
0.204, 2.979e-6
0.205, 3.324e-6
0.206, 3.706e-6
0.207, 4.147e-6
0.208, 4.645e-6
0.209, 5.211e-6
0.210, 5.845e-6
0.211, 6.569e-6
0.212, 7.387e-6
0.213, 8.290e-6
0.214, 9.294e-6
0.215, 1.039e-5
0.216, 1.160e-5
0.217, 1.292e-5
0.218, 1.434e-5
0.219, 1.587e-5
0.220, 1.749e-5
0.221, 1.921e-5
0.222, 2.102e-5
0.223, 2.292e-5
0.224, 2.492e-5
0.225, 2.699e-5
0.226, 2.914e-5
0.227, 3.136e-5
0.228, 3.364e-5
0.229, 3.598e-5
0.230, 3.838e-5
0.231, 4.083e-5
0.232, 4.333e-5
0.233, 4.587e-5
0.234, 4.846e-5
0.235, 5.108e-5
0.236, 5.371e-5
0.237, 5.639e-5
0.238, 5.909e-5
0.239, 6.179e-5
0.240, 6.452e-5
0.241, 6.723e-5
0.242, 6.992e-5
0.243, 7.264e-5
0.244, 7.533e-5
0.245, 7.801e-5
0.246, 8.067e-5
0.247, 8.331e-5
0.248, 8.592e-5
0.249, 8.846e-5
0.250, 9.097e-5
0.251, 9.344e-5
0.252, 9.584e-5
0.253, 9.817e-5
0.254, 1.004e-4
0.255, 1.026e-4
0.256, 1.047e-4
0.257, 1.067e-4
0.258, 1.086e-4
0.259, 1.104e-4
0.260, 1.121e-4
0.261, 1.137e-4
0.262, 1.152e-4
0.263, 1.165e-4
0.264, 1.177e-4
0.265, 1.188e-4
0.266, 1.198e-4
0.267, 1.206e-4
0.268, 1.213e-4
0.269, 1.217e-4
0.270, 1.221e-4
0.271, 1.222e-4
0.272, 1.223e-4
0.273, 1.221e-4
0.274, 1.218e-4
0.275, 1.212e-4
0.276, 1.205e-4
0.277, 1.197e-4
0.278, 1.186e-4
0.279, 1.174e-4
0.280, 1.160e-4
0.281, 1.144e-4
0.282, 1.127e-4
0.283, 1.108e-4
0.284, 1.088e-4
0.285, 1.066e-4
0.286, 1.044e-4
0.287, 1.021e-4
0.288, 9.966e-5
0.289, 9.721e-5
0.290, 9.472e-5
0.291, 9.222e-5
0.292, 8.970e-5
0.293, 8.719e-5
0.294, 8.472e-5
0.295, 8.225e-5
0.296, 7.981e-5
0.297, 7.743e-5
0.298, 7.510e-5
0.299, 7.282e-5
0.300, 7.056e-5
0.301, 6.837e-5
0.302, 6.629e-5
0.303, 6.429e-5
0.304, 6.234e-5
0.305, 6.043e-5
0.306, 5.862e-5
0.307, 5.689e-5
0.308, 5.522e-5
0.309, 5.358e-5
0.310, 5.202e-5
0.311, 5.053e-5
0.312, 4.912e-5
0.313, 4.776e-5
0.314, 4.646e-5
0.315, 4.524e-5
0.316, 4.408e-5
0.317, 4.297e-5
0.318, 4.194e-5
0.319, 4.094e-5
0.320, 4.001e-5
0.321, 3.913e-5
0.322, 3.826e-5
0.323, 3.748e-5
0.324, 3.672e-5
0.325, 3.597e-5
0.326, 3.528e-5
0.327, 3.462e-5
0.328, 3.399e-5
0.329, 3.339e-5
0.330, 3.280e-5
0.331, 3.225e-5
0.332, 3.171e-5
0.333, 3.120e-5
0.334, 3.072e-5
0.335, 3.025e-5
0.336, 2.980e-5
0.337, 2.937e-5
0.338, 2.895e-5
0.339, 2.856e-5
0.340, 2.818e-5
0.341, 2.781e-5
0.342, 2.746e-5
0.343, 2.712e-5
0.344, 2.679e-5
0.345, 2.648e-5
0.346, 2.618e-5
0.347, 2.591e-5
0.348, 2.562e-5
0.349, 2.536e-5
0.350, 2.511e-5
0.351, 2.487e-5
0.352, 2.463e-5
0.353, 2.440e-5
0.354, 2.416e-5
0.355, 2.395e-5
0.356, 2.372e-5
0.357, 2.350e-5
0.358, 2.330e-5
0.359, 2.312e-5
0.360, 2.293e-5
0.361, 2.272e-5
0.362, 2.253e-5
0.363, 2.237e-5
0.364, 2.220e-5
0.365, 2.204e-5
0.366, 2.188e-5
0.367, 2.172e-5
0.368, 2.159e-5
0.369, 2.146e-5
0.370, 2.132e-5
0.371, 2.120e-5
0.372, 2.108e-5
0.373, 2.094e-5
0.374, 2.080e-5
0.375, 2.067e-5
0.376, 2.056e-5
0.377, 2.043e-5
0.378, 2.031e-5
0.379, 2.020e-5
0.380, 2.009e-5
0.381, 1.998e-5
0.382, 1.989e-5
0.383, 1.979e-5
0.384, 1.971e-5
0.385, 1.962e-5
0.386, 1.952e-5
0.387, 1.945e-5
0.388, 1.936e-5
0.389, 1.927e-5
0.390, 1.919e-5
0.391, 1.912e-5
0.392, 1.906e-5
0.393, 1.899e-5
0.394, 1.892e-5
0.395, 1.886e-5
0.396, 1.879e-5
0.397, 1.873e-5
0.398, 1.868e-5
0.399, 1.860e-5
0.400, 1.855e-5
0.401, 1.851e-5
0.402, 1.845e-5
0.403, 1.841e-5
0.404, 1.837e-5
0.405, 1.833e-5
0.406, 1.828e-5
0.407, 1.823e-5
0.408, 1.818e-5
0.409, 1.814e-5
0.410, 1.811e-5
0.411, 1.808e-5
0.412, 1.803e-5
0.413, 1.799e-5
0.414, 1.796e-5
0.415, 1.792e-5
0.416, 1.790e-5
0.417, 1.788e-5
0.418, 1.784e-5
0.419, 1.782e-5
0.420, 1.780e-5
0.421, 1.778e-5
0.422, 1.776e-5
0.423, 1.773e-5
0.424, 1.771e-5
0.425, 1.769e-5
0.426, 1.768e-5
0.427, 1.767e-5
0.428, 1.765e-5
0.429, 1.765e-5
0.430, 1.764e-5
0.431, 1.763e-5
0.432, 1.762e-5
0.433, 1.763e-5
0.434, 1.761e-5
0.435, 1.762e-5
0.436, 1.762e-5
0.437, 1.761e-5
0.438, 1.762e-5
0.439, 1.761e-5
0.440, 1.762e-5
0.441, 1.762e-5
0.442, 1.762e-5
0.443, 1.764e-5
0.444, 1.764e-5
0.445, 1.765e-5
0.446, 1.766e-5
0.447, 1.767e-5
0.448, 1.769e-5
0.449, 1.770e-5
0.450, 1.771e-5
0.451, 1.774e-5
0.452, 1.775e-5
0.453, 1.776e-5
0.454, 1.778e-5
0.455, 1.780e-5
0.456, 1.782e-5
0.457, 1.784e-5
0.458, 1.786e-5
0.459, 1.789e-5
0.460, 1.791e-5
0.461, 1.795e-5
0.462, 1.798e-5
0.463, 1.801e-5
0.464, 1.804e-5
0.465, 1.807e-5
0.466, 1.809e-5
0.467, 1.812e-5
0.468, 1.815e-5
0.469, 1.818e-5
0.470, 1.822e-5
0.471, 1.825e-5
0.472, 1.828e-5
0.473, 1.832e-5
0.474, 1.836e-5
0.475, 1.840e-5
0.476, 1.843e-5
0.477, 1.847e-5
0.478, 1.852e-5
0.479, 1.855e-5
0.480, 1.859e-5
0.481, 1.862e-5
0.482, 1.866e-5
0.483, 1.871e-5
0.484, 1.874e-5
0.485, 1.878e-5
0.486, 1.883e-5
0.487, 1.887e-5
0.488, 1.892e-5
0.489, 1.896e-5
0.490, 1.900e-5
0.491, 1.905e-5
0.492, 1.909e-5
0.493, 1.914e-5
0.494, 1.920e-5
0.495, 1.924e-5
0.496, 1.930e-5
0.497, 1.935e-5
0.498, 1.939e-5
0.499, 1.945e-5
0.500, 1.951e-5
0.501, 1.956e-5
0.502, 1.961e-5
0.503, 1.967e-5
0.504, 1.973e-5
0.505, 1.978e-5
0.506, 1.985e-5
0.507, 1.993e-5
0.508, 1.999e-5
0.509, 2.005e-5
0.510, 2.013e-5
0.511, 2.018e-5
0.512, 2.028e-5
0.513, 2.037e-5
0.514, 2.044e-5
0.515, 2.051e-5
0.516, 2.058e-5
0.517, 2.065e-5
0.518, 2.073e-5
0.519, 2.081e-5
0.520, 2.090e-5
0.521, 2.099e-5
0.522, 2.107e-5
0.523, 2.116e-5
0.524, 2.124e-5
0.525, 2.135e-5
0.526, 2.146e-5
0.527, 2.155e-5
0.528, 2.165e-5
0.529, 2.176e-5
0.530, 2.185e-5
0.531, 2.196e-5
0.532, 2.207e-5
0.533, 2.219e-5
0.534, 2.231e-5
0.535, 2.240e-5
0.536, 2.252e-5
0.537, 2.263e-5
0.538, 2.275e-5
0.539, 2.288e-5
0.540, 2.301e-5
0.541, 2.314e-5
0.542, 2.327e-5
0.543, 2.339e-5
0.544, 2.351e-5
0.545, 2.364e-5
0.546, 2.377e-5
0.547, 2.392e-5
0.548, 2.406e-5
0.549, 2.420e-5
0.550, 2.435e-5
0.551, 2.449e-5
0.552, 2.465e-5
0.553, 2.478e-5
0.554, 2.492e-5
0.555, 2.508e-5
0.556, 2.521e-5
0.557, 2.537e-5
0.558, 2.554e-5
0.559, 2.569e-5
0.560, 2.585e-5
0.561, 2.603e-5
0.562, 2.617e-5
0.563, 2.635e-5
0.564, 2.652e-5
0.565, 2.669e-5
0.566, 2.686e-5
0.567, 2.701e-5
0.568, 2.718e-5
0.569, 2.735e-5
0.570, 2.753e-5
0.571, 2.770e-5
0.572, 2.786e-5
0.573, 2.803e-5
0.574, 2.822e-5
0.575, 2.838e-5
0.576, 2.856e-5
0.577, 2.873e-5
0.578, 2.890e-5
0.579, 2.908e-5
0.580, 2.924e-5
0.581, 2.941e-5
0.582, 2.959e-5
0.583, 2.977e-5
0.584, 2.995e-5
0.585, 3.011e-5
0.586, 3.028e-5
0.587, 3.046e-5
0.588, 3.063e-5
0.589, 3.081e-5
0.590, 3.099e-5
0.591, 3.116e-5
0.592, 3.133e-5
0.593, 3.149e-5
0.594, 3.166e-5
0.595, 3.185e-5
0.596, 3.202e-5
0.597, 3.219e-5
0.598, 3.235e-5
0.599, 3.252e-5
0.600, 3.269e-5
0.601, 3.285e-5
0.602, 3.302e-5
0.603, 3.320e-5
0.604, 3.335e-5
0.605, 3.352e-5
0.606, 3.370e-5
0.607, 3.387e-5
0.608, 3.406e-5
0.609, 3.425e-5
0.610, 3.442e-5
0.611, 3.461e-5
0.612, 3.479e-5
0.613, 3.497e-5
0.614, 3.516e-5
0.615, 3.536e-5
0.616, 3.555e-5
0.617, 3.575e-5
0.618, 3.594e-5
0.619, 3.614e-5
0.620, 3.632e-5
0.621, 3.652e-5
0.622, 3.672e-5
0.623, 3.691e-5
0.624, 3.713e-5
0.625, 3.734e-5
0.626, 3.754e-5
0.627, 3.776e-5
0.628, 3.798e-5
0.629, 3.820e-5
0.630, 3.843e-5
0.631, 3.864e-5
0.632, 3.888e-5
0.633, 3.913e-5
0.634, 3.937e-5
0.635, 3.962e-5
0.636, 3.986e-5
0.637, 4.012e-5
0.638, 4.039e-5
0.639, 4.064e-5
0.640, 4.092e-5
0.641, 4.120e-5
0.642, 4.147e-5
0.643, 4.177e-5
0.644, 4.206e-5
0.645, 4.237e-5
0.646, 4.269e-5
0.647, 4.300e-5
0.648, 4.334e-5
0.649, 4.368e-5
0.650, 4.402e-5
0.651, 4.437e-5
0.652, 4.472e-5
0.653, 4.511e-5
0.654, 4.551e-5
0.655, 4.588e-5
0.656, 4.629e-5
0.657, 4.671e-5
0.658, 4.711e-5
0.659, 4.753e-5
0.660, 4.798e-5
0.661, 4.842e-5
0.662, 4.889e-5
0.663, 4.936e-5
0.664, 4.986e-5
0.665, 5.037e-5
0.666, 5.088e-5
0.667, 5.141e-5
0.668, 5.195e-5
0.669, 5.250e-5
0.670, 5.307e-5
0.671, 5.364e-5
0.672, 5.426e-5
0.673, 5.491e-5
0.674, 5.555e-5
0.675, 5.620e-5
0.676, 5.685e-5
0.677, 5.753e-5
0.678, 5.824e-5
0.679, 5.896e-5
0.680, 5.970e-5
0.681, 6.046e-5
0.682, 6.123e-5
0.683, 6.203e-5
0.684, 6.286e-5
0.685, 6.369e-5
0.686, 6.453e-5
0.687, 6.540e-5
0.688, 6.630e-5
0.689, 6.722e-5
0.690, 6.815e-5
0.691, 6.913e-5
0.692, 7.012e-5
0.693, 7.111e-5
0.694, 7.214e-5
0.695, 7.319e-5
0.696, 7.428e-5
0.697, 7.536e-5
0.698, 7.648e-5
0.699, 7.764e-5
0.700, 7.881e-5
0.701, 8.001e-5
0.702, 8.121e-5
0.703, 8.244e-5
0.704, 8.374e-5
0.705, 8.505e-5
0.706, 8.635e-5
0.707, 8.769e-5
0.708, 8.904e-5
0.709, 9.044e-5
0.710, 9.187e-5
0.711, 9.333e-5
0.712, 9.483e-5
0.713, 9.635e-5
0.714, 9.785e-5
0.715, 9.940e-5
0.716, 1.010e-4
0.717, 1.026e-4
0.718, 1.043e-4
0.719, 1.059e-4
0.720, 1.076e-4
0.721, 1.093e-4
0.722, 1.109e-4
0.723, 1.127e-4
0.724, 1.145e-4
0.725, 1.163e-4
0.726, 1.181e-4
0.727, 1.200e-4
0.728, 1.219e-4
0.729, 1.238e-4
0.730, 1.258e-4
0.731, 1.277e-4
0.732, 1.297e-4
0.733, 1.317e-4
0.734, 1.338e-4
0.735, 1.359e-4
0.736, 1.380e-4
0.737, 1.400e-4
0.738, 1.422e-4
0.739, 1.444e-4
0.740, 1.466e-4
0.741, 1.488e-4
0.742, 1.511e-4
0.743, 1.534e-4
0.744, 1.557e-4
0.745, 1.580e-4
0.746, 1.604e-4
0.747, 1.628e-4
0.748, 1.652e-4
0.749, 1.676e-4
0.750, 1.701e-4
0.751, 1.726e-4
0.752, 1.751e-4
0.753, 1.776e-4
0.754, 1.801e-4
0.755, 1.827e-4
0.756, 1.853e-4
0.757, 1.879e-4
0.758, 1.905e-4
0.759, 1.932e-4
0.760, 1.958e-4
0.761, 1.985e-4
0.762, 2.012e-4
0.763, 2.039e-4
0.764, 2.067e-4
0.765, 2.095e-4
0.766, 2.123e-4
0.767, 2.151e-4
0.768, 2.179e-4
0.769, 2.208e-4
0.770, 2.236e-4
0.771, 2.265e-4
0.772, 2.294e-4
0.773, 2.324e-4
0.774, 2.353e-4
0.775, 2.382e-4
0.776, 2.413e-4
0.777, 2.443e-4
0.778, 2.473e-4
0.779, 2.503e-4
0.780, 2.533e-4
0.781, 2.564e-4
0.782, 2.595e-4
0.783, 2.627e-4
0.784, 2.658e-4
0.785, 2.689e-4
0.786, 2.721e-4
0.787, 2.753e-4
0.788, 2.784e-4
0.789, 2.816e-4
0.790, 2.848e-4
0.791, 2.880e-4
0.792, 2.912e-4
0.793, 2.944e-4
0.794, 2.976e-4
0.795, 3.009e-4
0.796, 3.041e-4
0.797, 3.074e-4
0.798, 3.108e-4
0.799, 3.141e-4
0.800, 3.168e-4
0.799, 3.145e-4
0.798, 3.093e-4
0.797, 3.041e-4
0.796, 2.991e-4
0.795, 2.942e-4
0.794, 2.893e-4
0.793, 2.846e-4
0.792, 2.800e-4
0.791, 2.755e-4
0.790, 2.710e-4
0.789, 2.665e-4
0.788, 2.621e-4
0.787, 2.576e-4
0.786, 2.532e-4
0.785, 2.489e-4
0.784, 2.448e-4
0.783, 2.406e-4
0.782, 2.365e-4
0.781, 2.324e-4
0.780, 2.284e-4
0.779, 2.243e-4
0.778, 2.204e-4
0.777, 2.165e-4
0.776, 2.127e-4
0.775, 2.089e-4
0.774, 2.051e-4
0.773, 2.014e-4
0.772, 1.978e-4
0.771, 1.941e-4
0.770, 1.905e-4
0.769, 1.870e-4
0.768, 1.835e-4
0.767, 1.800e-4
0.766, 1.765e-4
0.765, 1.732e-4
0.764, 1.699e-4
0.763, 1.665e-4
0.762, 1.633e-4
0.761, 1.600e-4
0.760, 1.568e-4
0.759, 1.537e-4
0.758, 1.506e-4
0.757, 1.476e-4
0.756, 1.445e-4
0.755, 1.415e-4
0.754, 1.386e-4
0.753, 1.357e-4
0.752, 1.328e-4
0.751, 1.300e-4
0.750, 1.272e-4
0.749, 1.244e-4
0.748, 1.217e-4
0.747, 1.189e-4
0.746, 1.162e-4
0.745, 1.136e-4
0.744, 1.111e-4
0.743, 1.085e-4
0.742, 1.060e-4
0.741, 1.035e-4
0.740, 1.010e-4
0.739, 9.862e-5
0.738, 9.627e-5
0.737, 9.392e-5
0.736, 9.160e-5
0.735, 8.934e-5
0.734, 8.712e-5
0.733, 8.490e-5
0.732, 8.274e-5
0.731, 8.064e-5
0.730, 7.856e-5
0.729, 7.651e-5
0.728, 7.449e-5
0.727, 7.251e-5
0.726, 7.055e-5
0.725, 6.864e-5
0.724, 6.678e-5
0.723, 6.496e-5
0.722, 6.313e-5
0.721, 6.134e-5
0.720, 5.959e-5
0.719, 5.789e-5
0.718, 5.622e-5
0.717, 5.456e-5
0.716, 5.290e-5
0.715, 5.132e-5
0.714, 4.982e-5
0.713, 4.833e-5
0.712, 4.683e-5
0.711, 4.534e-5
0.710, 4.390e-5
0.709, 4.251e-5
0.708, 4.116e-5
0.707, 3.981e-5
0.706, 3.851e-5
0.705, 3.725e-5
0.704, 3.599e-5
0.703, 3.476e-5
0.702, 3.355e-5
0.701, 3.239e-5
0.700, 3.125e-5
0.699, 3.012e-5
0.698, 2.901e-5
0.697, 2.794e-5
0.696, 2.688e-5
0.695, 2.586e-5
0.694, 2.486e-5
0.693, 2.388e-5
0.692, 2.293e-5
0.691, 2.198e-5
0.690, 2.107e-5
0.689, 2.020e-5
0.688, 1.932e-5
0.687, 1.848e-5
0.686, 1.767e-5
0.685, 1.687e-5
0.684, 1.609e-5
0.683, 1.532e-5
0.682, 1.458e-5
0.681, 1.386e-5
0.680, 1.314e-5
0.679, 1.245e-5
0.678, 1.178e-5
0.677, 1.112e-5
0.676, 1.049e-5
0.675, 9.865e-6
0.674, 9.261e-6
0.673, 8.674e-6
0.672, 8.080e-6
0.671, 7.512e-6
0.670, 6.962e-6
0.669, 6.435e-6
0.668, 5.917e-6
0.667, 5.408e-6
0.666, 4.914e-6
0.665, 4.427e-6
0.664, 3.955e-6
0.663, 3.509e-6
0.662, 3.071e-6
0.661, 2.630e-6
0.660, 2.215e-6
0.659, 1.798e-6
0.658, 1.395e-6
0.657, 1.016e-6
0.656, 6.312e-7
0.655, 2.666e-7
0.654, -9.302e-8
0.653, -4.481e-7
0.652, -7.937e-7
0.651, -1.135e-6
0.650, -1.456e-6
0.649, -1.765e-6
0.648, -2.082e-6
0.647, -2.382e-6
0.646, -2.670e-6
0.645, -2.961e-6
0.644, -3.230e-6
0.643, -3.507e-6
0.642, -3.769e-6
0.641, -4.020e-6
0.640, -4.284e-6
0.639, -4.526e-6
0.638, -4.763e-6
0.637, -5.001e-6
0.636, -5.223e-6
0.635, -5.453e-6
0.634, -5.671e-6
0.633, -5.881e-6
0.632, -6.096e-6
0.631, -6.289e-6
0.630, -6.475e-6
0.629, -6.669e-6
0.628, -6.855e-6
0.627, -7.049e-6
0.626, -7.228e-6
0.625, -7.390e-6
0.624, -7.569e-6
0.623, -7.732e-6
0.622, -7.883e-6
0.621, -8.044e-6
0.620, -8.199e-6
0.619, -8.355e-6
0.618, -8.500e-6
0.617, -8.643e-6
0.616, -8.794e-6
0.615, -8.927e-6
0.614, -9.074e-6
0.613, -9.212e-6
0.612, -9.318e-6
0.611, -9.444e-6
0.610, -9.567e-6
0.609, -9.670e-6
0.608, -9.790e-6
0.607, -9.897e-6
0.606, -9.998e-6
0.605, -1.011e-5
0.604, -1.021e-5
0.603, -1.031e-5
0.602, -1.040e-5
0.601, -1.050e-5
0.600, -1.059e-5
0.599, -1.067e-5
0.598, -1.075e-5
0.597, -1.084e-5
0.596, -1.091e-5
0.595, -1.099e-5
0.594, -1.107e-5
0.593, -1.113e-5
0.592, -1.121e-5
0.591, -1.127e-5
0.590, -1.133e-5
0.589, -1.139e-5
0.588, -1.144e-5
0.587, -1.149e-5
0.586, -1.154e-5
0.585, -1.159e-5
0.584, -1.164e-5
0.583, -1.167e-5
0.582, -1.172e-5
0.581, -1.177e-5
0.580, -1.179e-5
0.579, -1.183e-5
0.578, -1.186e-5
0.577, -1.189e-5
0.576, -1.192e-5
0.575, -1.196e-5
0.574, -1.197e-5
0.573, -1.199e-5
0.572, -1.200e-5
0.571, -1.202e-5
0.570, -1.203e-5
0.569, -1.204e-5
0.568, -1.205e-5
0.567, -1.205e-5
0.566, -1.206e-5
0.565, -1.206e-5
0.564, -1.206e-5
0.563, -1.208e-5
0.562, -1.208e-5
0.561, -1.207e-5
0.560, -1.207e-5
0.559, -1.206e-5
0.558, -1.204e-5
0.557, -1.205e-5
0.556, -1.204e-5
0.555, -1.203e-5
0.554, -1.202e-5
0.553, -1.200e-5
0.552, -1.198e-5
0.551, -1.196e-5
0.550, -1.195e-5
0.549, -1.194e-5
0.548, -1.191e-5
0.547, -1.190e-5
0.546, -1.187e-5
0.545, -1.184e-5
0.544, -1.183e-5
0.543, -1.180e-5
0.542, -1.178e-5
0.541, -1.176e-5
0.540, -1.172e-5
0.539, -1.169e-5
0.538, -1.166e-5
0.537, -1.164e-5
0.536, -1.161e-5
0.535, -1.157e-5
0.534, -1.154e-5
0.533, -1.151e-5
0.532, -1.146e-5
0.531, -1.144e-5
0.530, -1.142e-5
0.529, -1.138e-5
0.528, -1.136e-5
0.527, -1.133e-5
0.526, -1.129e-5
0.525, -1.127e-5
0.524, -1.124e-5
0.523, -1.121e-5
0.522, -1.118e-5
0.521, -1.114e-5
0.520, -1.111e-5
0.519, -1.107e-5
0.518, -1.105e-5
0.517, -1.102e-5
0.516, -1.098e-5
0.515, -1.095e-5
0.514, -1.091e-5
0.513, -1.087e-5
0.512, -1.086e-5
0.511, -1.085e-5
0.510, -1.080e-5
0.509, -1.075e-5
0.508, -1.071e-5
0.507, -1.068e-5
0.506, -1.065e-5
0.505, -1.062e-5
0.504, -1.059e-5
0.503, -1.055e-5
0.502, -1.052e-5
0.501, -1.049e-5
0.500, -1.045e-5
0.499, -1.042e-5
0.498, -1.039e-5
0.497, -1.035e-5
0.496, -1.033e-5
0.495, -1.030e-5
0.494, -1.027e-5
0.493, -1.025e-5
0.492, -1.022e-5
0.491, -1.020e-5
0.490, -1.017e-5
0.489, -1.014e-5
0.488, -1.011e-5
0.487, -1.008e-5
0.486, -1.006e-5
0.485, -1.004e-5
0.484, -1.001e-5
0.483, -9.988e-6
0.482, -9.961e-6
0.481, -9.932e-6
0.480, -9.916e-6
0.479, -9.899e-6
0.478, -9.873e-6
0.477, -9.855e-6
0.476, -9.827e-6
0.475, -9.809e-6
0.474, -9.793e-6
0.473, -9.776e-6
0.472, -9.765e-6
0.471, -9.740e-6
0.470, -9.719e-6
0.469, -9.711e-6
0.468, -9.692e-6
0.467, -9.685e-6
0.466, -9.675e-6
0.465, -9.649e-6
0.464, -9.638e-6
0.463, -9.624e-6
0.462, -9.614e-6
0.461, -9.613e-6
0.460, -9.610e-6
0.459, -9.604e-6
0.458, -9.593e-6
0.457, -9.574e-6
0.456, -9.572e-6
0.455, -9.560e-6
0.454, -9.562e-6
0.453, -9.556e-6
0.452, -9.530e-6
0.451, -9.532e-6
0.450, -9.536e-6
0.449, -9.527e-6
0.448, -9.525e-6
0.447, -9.527e-6
0.446, -9.529e-6
0.445, -9.536e-6
0.444, -9.528e-6
0.443, -9.530e-6
0.442, -9.532e-6
0.441, -9.527e-6
0.440, -9.528e-6
0.439, -9.524e-6
0.438, -9.527e-6
0.437, -9.537e-6
0.436, -9.530e-6
0.435, -9.539e-6
0.434, -9.545e-6
0.433, -9.542e-6
0.432, -9.551e-6
0.431, -9.566e-6
0.430, -9.574e-6
0.429, -9.586e-6
0.428, -9.594e-6
0.427, -9.602e-6
0.426, -9.608e-6
0.425, -9.602e-6
0.424, -9.614e-6
0.423, -9.620e-6
0.422, -9.635e-6
0.421, -9.648e-6
0.420, -9.651e-6
0.419, -9.668e-6
0.418, -9.688e-6
0.417, -9.699e-6
0.416, -9.718e-6
0.415, -9.743e-6
0.414, -9.769e-6
0.413, -9.788e-6
0.412, -9.792e-6
0.411, -9.812e-6
0.410, -9.829e-6
0.409, -9.841e-6
0.408, -9.862e-6
0.407, -9.875e-6
0.406, -9.898e-6
0.405, -9.932e-6
0.404, -9.949e-6
0.403, -9.974e-6
0.402, -9.988e-6
0.401, -1.001e-5
0.400, -1.004e-5
0.399, -1.007e-5
0.398, -1.009e-5
0.397, -1.012e-5
0.396, -1.014e-5
0.395, -1.017e-5
0.394, -1.020e-5
0.393, -1.022e-5
0.392, -1.024e-5
0.391, -1.027e-5
0.390, -1.031e-5
0.389, -1.034e-5
0.388, -1.036e-5
0.387, -1.039e-5
0.386, -1.043e-5
0.385, -1.046e-5
0.384, -1.050e-5
0.383, -1.053e-5
0.382, -1.056e-5
0.381, -1.060e-5
0.380, -1.064e-5
0.379, -1.068e-5
0.378, -1.072e-5
0.377, -1.076e-5
0.376, -1.080e-5
0.375, -1.084e-5
0.374, -1.088e-5
0.373, -1.093e-5
0.372, -1.096e-5
0.371, -1.102e-5
0.370, -1.107e-5
0.369, -1.110e-5
0.368, -1.115e-5
0.367, -1.120e-5
0.366, -1.125e-5
0.365, -1.130e-5
0.364, -1.135e-5
0.363, -1.140e-5
0.362, -1.145e-5
0.361, -1.150e-5
0.360, -1.156e-5
0.359, -1.162e-5
0.358, -1.169e-5
0.357, -1.176e-5
0.356, -1.181e-5
0.355, -1.187e-5
0.354, -1.193e-5
0.353, -1.198e-5
0.352, -1.205e-5
0.351, -1.212e-5
0.350, -1.218e-5
0.349, -1.224e-5
0.348, -1.230e-5
0.347, -1.238e-5
0.346, -1.245e-5
0.345, -1.252e-5
0.344, -1.260e-5
0.343, -1.267e-5
0.342, -1.275e-5
0.341, -1.282e-5
0.340, -1.289e-5
0.339, -1.298e-5
0.338, -1.307e-5
0.337, -1.314e-5
0.336, -1.323e-5
0.335, -1.332e-5
0.334, -1.341e-5
0.333, -1.351e-5
0.332, -1.360e-5
0.331, -1.369e-5
0.330, -1.379e-5
0.329, -1.388e-5
0.328, -1.398e-5
0.327, -1.407e-5
0.326, -1.418e-5
0.325, -1.430e-5
0.324, -1.439e-5
0.323, -1.449e-5
0.322, -1.460e-5
0.321, -1.471e-5
0.320, -1.483e-5
0.319, -1.495e-5
0.318, -1.506e-5
0.317, -1.517e-5
0.316, -1.528e-5
0.315, -1.539e-5
0.314, -1.553e-5
0.313, -1.565e-5
0.312, -1.579e-5
0.311, -1.592e-5
0.310, -1.605e-5
0.309, -1.619e-5
0.308, -1.631e-5
0.307, -1.648e-5
0.306, -1.664e-5
0.305, -1.678e-5
0.304, -1.692e-5
0.303, -1.706e-5
0.302, -1.721e-5
0.301, -1.737e-5
0.300, -1.753e-5
0.299, -1.769e-5
0.298, -1.786e-5
0.297, -1.802e-5
0.296, -1.820e-5
0.295, -1.836e-5
0.294, -1.854e-5
0.293, -1.872e-5
0.292, -1.890e-5
0.291, -1.908e-5
0.290, -1.926e-5
0.289, -1.945e-5
0.288, -1.966e-5
0.287, -1.986e-5
0.286, -2.006e-5
0.285, -2.027e-5
0.284, -2.048e-5
0.283, -2.070e-5
0.282, -2.092e-5
0.281, -2.115e-5
0.280, -2.137e-5
0.279, -2.160e-5
0.278, -2.183e-5
0.277, -2.209e-5
0.276, -2.233e-5
0.275, -2.258e-5
0.274, -2.283e-5
0.273, -2.308e-5
0.272, -2.335e-5
0.271, -2.361e-5
0.270, -2.388e-5
0.269, -2.416e-5
0.268, -2.445e-5
0.267, -2.473e-5
0.266, -2.502e-5
0.265, -2.530e-5
0.264, -2.560e-5
0.263, -2.590e-5
0.262, -2.621e-5
0.261, -2.652e-5
0.260, -2.684e-5
0.259, -2.716e-5
0.258, -2.749e-5
0.257, -2.782e-5
0.256, -2.816e-5
0.255, -2.851e-5
0.254, -2.884e-5
0.253, -2.920e-5
0.252, -2.955e-5
0.251, -2.990e-5
0.250, -3.027e-5
0.249, -3.064e-5
0.248, -3.103e-5
0.247, -3.141e-5
0.246, -3.181e-5
0.245, -3.221e-5
0.244, -3.260e-5
0.243, -3.301e-5
0.242, -3.343e-5
0.241, -3.382e-5
0.240, -3.423e-5
0.239, -3.464e-5
0.238, -3.505e-5
0.237, -3.547e-5
0.236, -3.589e-5
0.235, -3.632e-5
0.234, -3.676e-5
0.233, -3.718e-5
0.232, -3.762e-5
0.231, -3.804e-5
0.230, -3.846e-5
0.229, -3.888e-5
0.228, -3.928e-5
0.227, -3.970e-5
0.226, -4.013e-5
0.225, -4.052e-5
0.224, -4.091e-5
0.223, -4.129e-5
0.222, -4.166e-5
0.221, -4.203e-5
0.220, -4.239e-5
0.219, -4.273e-5
0.218, -4.305e-5
0.217, -4.336e-5
0.216, -4.364e-5
0.215, -4.390e-5
0.214, -4.414e-5
0.213, -4.436e-5
0.212, -4.453e-5
0.211, -4.469e-5
0.210, -4.481e-5
0.209, -4.487e-5
0.208, -4.490e-5
0.207, -4.489e-5
0.206, -4.484e-5
0.205, -4.473e-5
0.204, -4.460e-5
0.203, -4.440e-5
0.202, -4.414e-5
0.201, -4.382e-5
0.200, -4.344e-5
0.199, -4.299e-5
0.198, -4.254e-5
0.197, -4.204e-5
0.196, -4.147e-5
0.195, -4.086e-5
0.194, -4.023e-5
0.193, -3.957e-5
0.192, -3.889e-5
0.191, -3.819e-5
0.190, -3.748e-5
0.189, -3.677e-5
0.188, -3.606e-5
0.187, -3.536e-5
0.186, -3.467e-5
0.185, -3.399e-5
0.184, -3.332e-5
0.183, -3.267e-5
0.182, -3.203e-5
0.181, -3.141e-5
0.180, -3.080e-5
0.179, -3.022e-5
0.178, -2.966e-5
0.177, -2.909e-5
0.176, -2.854e-5
0.175, -2.800e-5
0.174, -2.749e-5
0.173, -2.699e-5
0.172, -2.652e-5
0.171, -2.606e-5
0.170, -2.561e-5
0.169, -2.518e-5
0.168, -2.477e-5
0.167, -2.435e-5
0.166, -2.395e-5
0.165, -2.357e-5
0.164, -2.318e-5
0.163, -2.284e-5
0.162, -2.248e-5
0.161, -2.214e-5
0.160, -2.181e-5
0.159, -2.149e-5
0.158, -2.117e-5
0.157, -2.086e-5
0.156, -2.056e-5
0.155, -2.027e-5
0.154, -2.000e-5
0.153, -1.972e-5
0.152, -1.945e-5
0.151, -1.919e-5
0.150, -1.893e-5
0.149, -1.868e-5
0.148, -1.845e-5
0.147, -1.822e-5
0.146, -1.801e-5
0.145, -1.780e-5
0.144, -1.757e-5
0.143, -1.736e-5
0.142, -1.716e-5
0.141, -1.695e-5
0.140, -1.676e-5
0.139, -1.658e-5
0.138, -1.640e-5
0.137, -1.621e-5
0.136, -1.602e-5
0.135, -1.585e-5
0.134, -1.568e-5
0.133, -1.551e-5
0.132, -1.535e-5
0.131, -1.519e-5
0.130, -1.503e-5
0.129, -1.488e-5
0.128, -1.474e-5
0.127, -1.459e-5
0.126, -1.445e-5
0.125, -1.432e-5
0.124, -1.418e-5
0.123, -1.405e-5
0.122, -1.391e-5
0.121, -1.379e-5
0.120, -1.367e-5
0.119, -1.355e-5
0.118, -1.342e-5
0.117, -1.331e-5
0.116, -1.320e-5
0.115, -1.309e-5
0.114, -1.298e-5
0.113, -1.286e-5
0.112, -1.276e-5
0.111, -1.264e-5
0.110, -1.254e-5
0.109, -1.244e-5
0.108, -1.235e-5
0.107, -1.226e-5
0.106, -1.217e-5
0.105, -1.207e-5
0.104, -1.198e-5
0.103, -1.189e-5
0.102, -1.180e-5
0.101, -1.170e-5
0.100, -1.163e-5
0.099, -1.155e-5
0.098, -1.147e-5
0.097, -1.139e-5
0.096, -1.131e-5
0.095, -1.124e-5
0.094, -1.116e-5
0.093, -1.107e-5
0.092, -1.098e-5
0.091, -1.091e-5
0.090, -1.085e-5
0.089, -1.077e-5
0.088, -1.070e-5
0.087, -1.062e-5
0.086, -1.055e-5
0.085, -1.049e-5
0.084, -1.043e-5
0.083, -1.037e-5
0.082, -1.031e-5
0.081, -1.026e-5
0.080, -1.019e-5
0.079, -1.012e-5
0.078, -1.005e-5
0.077, -9.986e-6
0.076, -9.923e-6
0.075, -9.865e-6
0.074, -9.818e-6
0.073, -9.769e-6
0.072, -9.707e-6
0.071, -9.646e-6
0.070, -9.596e-6
0.069, -9.543e-6
0.068, -9.477e-6
0.067, -9.415e-6
0.066, -9.359e-6
0.065, -9.310e-6
0.064, -9.275e-6
0.063, -9.231e-6
0.062, -9.178e-6
0.061, -9.131e-6
0.060, -9.082e-6
0.059, -9.038e-6
0.058, -8.997e-6
0.057, -8.947e-6
0.056, -8.898e-6
0.055, -8.858e-6
0.054, -8.811e-6
0.053, -8.764e-6
0.052, -8.719e-6
0.051, -8.679e-6
0.050, -8.644e-6
0.049, -8.611e-6
0.048, -8.577e-6
0.047, -8.543e-6
0.046, -8.495e-6
0.045, -8.440e-6
0.044, -8.401e-6
0.043, -8.362e-6
0.042, -8.319e-6
0.041, -8.282e-6
0.040, -8.256e-6
0.039, -8.221e-6
0.038, -8.186e-6
0.037, -8.155e-6
0.036, -8.117e-6
0.035, -8.082e-6
0.034, -8.057e-6
0.033, -8.029e-6
0.032, -7.992e-6
0.031, -7.963e-6
0.030, -7.936e-6
0.029, -7.904e-6
0.028, -7.872e-6
0.027, -7.845e-6
0.026, -7.821e-6
0.025, -7.782e-6
0.024, -7.747e-6
0.023, -7.723e-6
0.022, -7.695e-6
0.021, -7.664e-6
0.020, -7.636e-6
0.019, -7.606e-6
0.018, -7.577e-6
0.017, -7.544e-6
0.016, -7.520e-6
0.015, -7.484e-6
0.014, -7.453e-6
0.013, -7.426e-6
0.012, -7.404e-6
0.011, -7.377e-6
0.010, -7.349e-6
0.009, -7.317e-6
0.008, -7.288e-6
0.007, -7.269e-6
0.006, -7.255e-6
0.005, -7.222e-6
0.004, -7.195e-6
0.003, -7.180e-6
0.002, -7.158e-6
0.001, -7.129e-6
0.000, -7.038e-6
0.001, -6.754e-6
0.002, -6.572e-6
0.003, -6.449e-6
0.004, -6.347e-6
0.005, -6.254e-6
0.006, -6.158e-6
0.007, -6.070e-6
0.008, -5.994e-6
0.009, -5.916e-6
0.010, -5.834e-6
0.011, -5.764e-6
0.012, -5.693e-6
0.013, -5.617e-6
0.014, -5.542e-6
0.015, -5.469e-6
0.016, -5.404e-6
0.017, -5.343e-6
0.018, -5.283e-6
0.019, -5.220e-6
0.020, -5.164e-6
0.021, -5.108e-6
0.022, -5.042e-6
0.023, -4.985e-6
0.024, -4.940e-6
0.025, -4.888e-6
0.026, -4.837e-6
0.027, -4.783e-6
0.028, -4.732e-6
0.029, -4.684e-6
0.030, -4.630e-6
0.031, -4.584e-6
0.032, -4.541e-6
0.033, -4.493e-6
0.034, -4.440e-6
0.035, -4.392e-6
0.036, -4.345e-6
0.037, -4.300e-6
0.038, -4.258e-6
0.039, -4.212e-6
0.040, -4.169e-6
0.041, -4.127e-6
0.042, -4.082e-6
0.043, -4.034e-6
0.044, -3.987e-6
0.045, -3.946e-6
0.046, -3.909e-6
0.047, -3.870e-6
0.048, -3.832e-6
0.049, -3.794e-6
0.050, -3.754e-6
0.051, -3.717e-6
0.052, -3.678e-6
0.053, -3.644e-6
0.054, -3.612e-6
0.055, -3.578e-6
0.056, -3.540e-6
0.057, -3.503e-6
0.058, -3.463e-6
0.059, -3.425e-6
0.060, -3.388e-6
0.061, -3.357e-6
0.062, -3.328e-6
0.063, -3.294e-6
0.064, -3.263e-6
0.065, -3.228e-6
0.066, -3.193e-6
0.067, -3.156e-6
0.068, -3.125e-6
0.069, -3.097e-6
0.070, -3.062e-6
0.071, -3.030e-6
0.072, -2.998e-6
0.073, -2.964e-6
0.074, -2.933e-6
0.075, -2.904e-6
0.076, -2.872e-6
0.077, -2.840e-6
0.078, -2.809e-6
0.079, -2.786e-6
0.080, -2.758e-6
0.081, -2.732e-6
0.082, -2.700e-6
0.083, -2.669e-6
0.084, -2.642e-6
0.085, -2.612e-6
0.086, -2.583e-6
0.087, -2.558e-6
0.088, -2.533e-6
0.089, -2.506e-6
0.090, -2.480e-6
0.091, -2.452e-6
0.092, -2.426e-6
0.093, -2.399e-6
0.094, -2.371e-6
0.095, -2.344e-6
0.096, -2.319e-6
0.097, -2.292e-6
0.098, -2.268e-6
0.099, -2.242e-6
0.100, -2.216e-6
0.101, -2.189e-6
0.102, -2.161e-6
0.103, -2.130e-6
0.104, -2.104e-6
0.105, -2.077e-6
0.106, -2.052e-6
0.107, -2.024e-6
0.108, -1.999e-6
0.109, -1.972e-6
0.110, -1.944e-6
0.111, -1.917e-6
0.112, -1.893e-6
0.113, -1.868e-6
0.114, -1.845e-6
0.115, -1.818e-6
0.116, -1.791e-6
0.117, -1.767e-6
0.118, -1.740e-6
0.119, -1.718e-6
0.120, -1.693e-6
0.121, -1.668e-6
0.122, -1.641e-6
0.123, -1.619e-6
0.124, -1.596e-6
0.125, -1.575e-6
0.126, -1.553e-6
0.127, -1.527e-6
0.128, -1.501e-6
0.129, -1.478e-6
0.130, -1.455e-6
0.131, -1.430e-6
0.132, -1.408e-6
0.133, -1.388e-6
0.134, -1.361e-6
0.135, -1.336e-6
0.136, -1.313e-6
0.137, -1.288e-6
0.138, -1.264e-6
0.139, -1.239e-6
0.140, -1.217e-6
0.141, -1.193e-6
0.142, -1.168e-6
0.143, -1.144e-6
0.144, -1.119e-6
0.145, -1.092e-6
0.146, -1.070e-6
0.147, -1.046e-6
0.148, -1.021e-6
0.149, -9.984e-7
0.150, -9.761e-7
0.151, -9.516e-7
0.152, -9.251e-7
0.153, -8.969e-7
0.154, -8.686e-7
0.155, -8.459e-7
0.156, -8.201e-7
0.157, -7.927e-7
0.158, -7.658e-7
0.159, -7.405e-7
0.160, -7.172e-7
0.161, -6.914e-7
0.162, -6.627e-7
0.163, -6.352e-7
0.164, -6.066e-7
0.165, -5.785e-7
0.166, -5.491e-7
0.167, -5.199e-7
0.168, -4.919e-7
0.169, -4.624e-7
0.170, -4.338e-7
0.171, -4.026e-7
0.172, -3.740e-7
0.173, -3.431e-7
0.174, -3.112e-7
0.175, -2.789e-7
0.176, -2.458e-7
0.177, -2.121e-7
0.178, -1.783e-7
0.179, -1.413e-7
0.180, -1.040e-7
0.181, -6.589e-8
0.182, -2.558e-8
0.183, 1.384e-8
0.184, 5.385e-8
0.185, 9.465e-8
0.186, 1.386e-7
0.187, 1.865e-7
0.188, 2.338e-7
0.189, 2.832e-7
0.190, 3.390e-7
0.191, 3.966e-7
0.192, 4.550e-7
0.193, 5.165e-7
0.194, 5.821e-7
0.195, 6.508e-7
0.196, 7.257e-7
0.197, 8.036e-7
0.198, 8.933e-7
0.199, 9.921e-7
0.200, 1.100e-6
0.201, 1.219e-6
0.202, 1.346e-6
0.203, 1.491e-6
0.204, 1.654e-6
0.205, 1.838e-6
0.206, 2.039e-6
0.207, 2.262e-6
0.208, 2.516e-6
0.209, 2.799e-6
0.210, 3.113e-6
0.211, 3.463e-6
0.212, 3.849e-6
0.213, 4.279e-6
0.214, 4.754e-6
0.215, 5.274e-6
0.216, 5.839e-6
0.217, 6.459e-6
0.218, 7.135e-6
0.219, 7.870e-6
0.220, 8.649e-6
0.221, 9.481e-6
0.222, 1.037e-5
0.223, 1.132e-5
0.224, 1.232e-5
0.225, 1.337e-5
0.226, 1.447e-5
0.227, 1.563e-5
0.228, 1.683e-5
0.229, 1.808e-5
0.230, 1.936e-5
0.231, 2.069e-5
0.232, 2.206e-5
0.233, 2.347e-5
0.234, 2.491e-5
0.235, 2.639e-5
0.236, 2.790e-5
0.237, 2.944e-5
0.238, 3.102e-5
0.239, 3.261e-5
0.240, 3.423e-5
0.241, 3.587e-5
0.242, 3.752e-5
0.243, 3.921e-5
0.244, 4.090e-5
0.245, 4.261e-5
0.246, 4.432e-5
0.247, 4.603e-5
0.248, 4.774e-5
0.249, 4.943e-5
0.250, 5.110e-5
0.251, 5.277e-5
0.252, 5.443e-5
0.253, 5.609e-5
0.254, 5.773e-5
0.255, 5.934e-5
0.256, 6.093e-5
0.257, 6.250e-5
0.258, 6.402e-5
0.259, 6.550e-5
0.260, 6.695e-5
0.261, 6.833e-5
0.262, 6.966e-5
0.263, 7.097e-5
0.264, 7.223e-5
0.265, 7.343e-5
0.266, 7.457e-5
0.267, 7.567e-5
0.268, 7.669e-5
0.269, 7.762e-5
0.270, 7.850e-5
0.271, 7.927e-5
0.272, 7.999e-5
0.273, 8.061e-5
0.274, 8.115e-5
0.275, 8.160e-5
0.276, 8.198e-5
0.277, 8.229e-5
0.278, 8.252e-5
0.279, 8.266e-5
0.280, 8.271e-5
0.281, 8.269e-5
0.282, 8.261e-5
0.283, 8.247e-5
0.284, 8.224e-5
0.285, 8.197e-5
0.286, 8.164e-5
0.287, 8.120e-5
0.288, 8.072e-5
0.289, 8.017e-5
0.290, 7.954e-5
0.291, 7.888e-5
0.292, 7.815e-5
0.293, 7.735e-5
0.294, 7.652e-5
0.295, 7.567e-5
0.296, 7.476e-5
0.297, 7.381e-5
0.298, 7.282e-5
0.299, 7.181e-5
0.300, 7.077e-5
0.301, 6.972e-5
0.302, 6.869e-5
0.303, 6.765e-5
0.304, 6.656e-5
0.305, 6.545e-5
0.306, 6.435e-5
0.307, 6.328e-5
0.308, 6.221e-5
0.309, 6.109e-5
0.310, 5.997e-5
0.311, 5.883e-5
0.312, 5.771e-5
0.313, 5.659e-5
0.314, 5.548e-5
0.315, 5.439e-5
0.316, 5.328e-5
0.317, 5.220e-5
0.318, 5.113e-5
0.319, 5.007e-5
0.320, 4.906e-5
0.321, 4.806e-5
0.322, 4.706e-5
0.323, 4.608e-5
0.324, 4.514e-5
0.325, 4.423e-5
0.326, 4.334e-5
0.327, 4.247e-5
0.328, 4.164e-5
0.329, 4.084e-5
0.330, 4.006e-5
0.331, 3.930e-5
0.332, 3.855e-5
0.333, 3.784e-5
0.334, 3.716e-5
0.335, 3.649e-5
0.336, 3.585e-5
0.337, 3.523e-5
0.338, 3.463e-5
0.339, 3.405e-5
0.340, 3.350e-5
0.341, 3.296e-5
0.342, 3.243e-5
0.343, 3.192e-5
0.344, 3.143e-5
0.345, 3.094e-5
0.346, 3.046e-5
0.347, 3.002e-5
0.348, 2.959e-5
0.349, 2.918e-5
0.350, 2.878e-5
0.351, 2.837e-5
0.352, 2.799e-5
0.353, 2.763e-5
0.354, 2.726e-5
0.355, 2.693e-5
0.356, 2.661e-5
0.357, 2.628e-5
0.358, 2.598e-5
0.359, 2.569e-5
0.360, 2.541e-5
0.361, 2.513e-5
0.362, 2.484e-5
0.363, 2.458e-5
0.364, 2.432e-5
0.365, 2.407e-5
0.366, 2.385e-5
0.367, 2.360e-5
0.368, 2.339e-5
0.369, 2.317e-5
0.370, 2.296e-5
0.371, 2.276e-5
0.372, 2.258e-5
0.373, 2.239e-5
0.374, 2.221e-5
0.375, 2.201e-5
0.376, 2.182e-5
0.377, 2.165e-5
0.378, 2.148e-5
0.379, 2.133e-5
0.380, 2.117e-5
0.381, 2.102e-5
0.382, 2.087e-5
0.383, 2.071e-5
0.384, 2.058e-5
0.385, 2.044e-5
0.386, 2.031e-5
0.387, 2.020e-5
0.388, 2.008e-5
0.389, 1.996e-5
0.390, 1.985e-5
0.391, 1.974e-5
0.392, 1.964e-5
0.393, 1.953e-5
0.394, 1.943e-5
0.395, 1.933e-5
0.396, 1.924e-5
0.397, 1.915e-5
0.398, 1.907e-5
0.399, 1.897e-5
0.400, 1.889e-5
0.401, 1.881e-5
0.402, 1.871e-5
0.403, 1.864e-5
0.404, 1.857e-5
0.405, 1.848e-5
0.406, 1.841e-5
0.407, 1.834e-5
0.408, 1.827e-5
0.409, 1.821e-5
0.410, 1.815e-5
0.411, 1.810e-5
0.412, 1.805e-5
0.413, 1.800e-5
0.414, 1.796e-5
0.415, 1.791e-5
0.416, 1.788e-5
0.417, 1.784e-5
0.418, 1.778e-5
0.419, 1.774e-5
0.420, 1.769e-5
0.421, 1.765e-5
0.422, 1.762e-5
0.423, 1.758e-5
0.424, 1.756e-5
0.425, 1.753e-5
0.426, 1.750e-5
0.427, 1.748e-5
0.428, 1.745e-5
0.429, 1.744e-5
0.430, 1.742e-5
0.431, 1.739e-5
0.432, 1.738e-5
0.433, 1.735e-5
0.434, 1.733e-5
0.435, 1.732e-5
0.436, 1.731e-5
0.437, 1.729e-5
0.438, 1.729e-5
0.439, 1.727e-5
0.440, 1.727e-5
0.441, 1.726e-5
0.442, 1.725e-5
0.443, 1.726e-5
0.444, 1.727e-5
0.445, 1.727e-5
0.446, 1.729e-5
0.447, 1.729e-5
0.448, 1.731e-5
0.449, 1.733e-5
0.450, 1.733e-5
0.451, 1.735e-5
0.452, 1.736e-5
0.453, 1.737e-5
0.454, 1.739e-5
0.455, 1.741e-5
0.456, 1.743e-5
0.457, 1.745e-5
0.458, 1.747e-5
0.459, 1.751e-5
0.460, 1.753e-5
0.461, 1.757e-5
0.462, 1.761e-5
0.463, 1.762e-5
0.464, 1.766e-5
0.465, 1.769e-5
0.466, 1.771e-5
0.467, 1.776e-5
0.468, 1.780e-5
0.469, 1.782e-5
0.470, 1.786e-5
0.471, 1.789e-5
0.472, 1.794e-5
0.473, 1.798e-5
0.474, 1.802e-5
0.475, 1.808e-5
0.476, 1.812e-5
0.477, 1.816e-5
0.478, 1.821e-5
0.479, 1.825e-5
0.480, 1.830e-5
0.481, 1.835e-5
0.482, 1.839e-5
0.483, 1.842e-5
0.484, 1.845e-5
0.485, 1.849e-5
0.486, 1.855e-5
0.487, 1.860e-5
0.488, 1.865e-5
0.489, 1.870e-5
0.490, 1.874e-5
0.491, 1.880e-5
0.492, 1.885e-5
0.493, 1.891e-5
0.494, 1.896e-5
0.495, 1.901e-5
0.496, 1.905e-5
0.497, 1.909e-5
0.498, 1.913e-5
0.499, 1.918e-5
0.500, 1.923e-5
0.501, 1.928e-5
0.502, 1.934e-5
0.503, 1.939e-5
0.504, 1.945e-5
0.505, 1.951e-5
0.506, 1.957e-5
0.507, 1.965e-5
0.508, 1.970e-5
0.509, 1.976e-5
0.510, 1.983e-5
0.511, 1.989e-5
0.512, 1.998e-5
0.513, 2.008e-5
0.514, 2.016e-5
0.515, 2.023e-5
0.516, 2.030e-5
0.517, 2.038e-5
0.518, 2.047e-5
0.519, 2.055e-5
0.520, 2.063e-5
0.521, 2.071e-5
0.522, 2.080e-5
0.523, 2.088e-5
0.524, 2.095e-5
0.525, 2.105e-5
0.526, 2.115e-5
0.527, 2.125e-5
0.528, 2.135e-5
0.529, 2.145e-5
0.530, 2.155e-5
0.531, 2.167e-5
0.532, 2.177e-5
0.533, 2.188e-5
0.534, 2.200e-5
0.535, 2.210e-5
0.536, 2.221e-5
0.537, 2.233e-5
0.538, 2.244e-5
0.539, 2.257e-5
0.540, 2.268e-5
0.541, 2.280e-5
0.542, 2.293e-5
0.543, 2.305e-5
0.544, 2.319e-5
0.545, 2.333e-5
0.546, 2.346e-5
0.547, 2.359e-5
0.548, 2.372e-5
0.549, 2.384e-5
0.550, 2.400e-5
0.551, 2.414e-5
0.552, 2.428e-5
0.553, 2.442e-5
0.554, 2.455e-5
0.555, 2.472e-5
0.556, 2.486e-5
0.557, 2.501e-5
0.558, 2.518e-5
0.559, 2.532e-5
0.560, 2.548e-5
0.561, 2.564e-5
0.562, 2.579e-5
0.563, 2.596e-5
0.564, 2.613e-5
0.565, 2.630e-5
0.566, 2.648e-5
0.567, 2.663e-5
0.568, 2.679e-5
0.569, 2.694e-5
0.570, 2.711e-5
0.571, 2.729e-5
0.572, 2.746e-5
0.573, 2.763e-5
0.574, 2.780e-5
0.575, 2.795e-5
0.576, 2.813e-5
0.577, 2.831e-5
0.578, 2.848e-5
0.579, 2.867e-5
0.580, 2.883e-5
0.581, 2.900e-5
0.582, 2.919e-5
0.583, 2.936e-5
0.584, 2.954e-5
0.585, 2.971e-5
0.586, 2.988e-5
0.587, 3.006e-5
0.588, 3.023e-5
0.589, 3.041e-5
0.590, 3.058e-5
0.591, 3.076e-5
0.592, 3.094e-5
0.593, 3.111e-5
0.594, 3.128e-5
0.595, 3.146e-5
0.596, 3.162e-5
0.597, 3.178e-5
0.598, 3.195e-5
0.599, 3.211e-5
0.600, 3.229e-5
0.601, 3.246e-5
0.602, 3.262e-5
0.603, 3.280e-5
0.604, 3.296e-5
0.605, 3.313e-5
0.606, 3.330e-5
0.607, 3.345e-5
0.608, 3.363e-5
0.609, 3.381e-5
0.610, 3.398e-5
0.611, 3.417e-5
0.612, 3.434e-5
0.613, 3.451e-5
0.614, 3.470e-5
0.615, 3.490e-5
0.616, 3.508e-5
0.617, 3.526e-5
0.618, 3.543e-5
0.619, 3.562e-5
0.620, 3.580e-5
0.621, 3.599e-5
0.622, 3.619e-5
0.623, 3.637e-5
0.624, 3.657e-5
0.625, 3.676e-5
0.626, 3.694e-5
0.627, 3.714e-5
0.628, 3.735e-5
0.629, 3.755e-5
0.630, 3.776e-5
0.631, 3.796e-5
0.632, 3.818e-5
0.633, 3.838e-5
0.634, 3.859e-5
0.635, 3.882e-5
0.636, 3.905e-5
0.637, 3.928e-5
0.638, 3.953e-5
0.639, 3.975e-5
0.640, 4.002e-5
0.641, 4.028e-5
0.642, 4.052e-5
0.643, 4.078e-5
0.644, 4.103e-5
0.645, 4.130e-5
0.646, 4.160e-5
0.647, 4.189e-5
0.648, 4.218e-5
0.649, 4.248e-5
0.650, 4.278e-5
0.651, 4.310e-5
0.652, 4.341e-5
0.653, 4.375e-5
0.654, 4.410e-5
0.655, 4.444e-5
0.656, 4.480e-5
0.657, 4.518e-5
0.658, 4.554e-5
0.659, 4.593e-5
0.660, 4.633e-5
0.661, 4.673e-5
0.662, 4.716e-5
0.663, 4.758e-5
0.664, 4.801e-5
0.665, 4.844e-5
0.666, 4.891e-5
0.667, 4.940e-5
0.668, 4.989e-5
0.669, 5.039e-5
0.670, 5.088e-5
0.671, 5.141e-5
0.672, 5.195e-5
0.673, 5.250e-5
0.674, 5.306e-5
0.675, 5.365e-5
0.676, 5.423e-5
0.677, 5.485e-5
0.678, 5.548e-5
0.679, 5.615e-5
0.680, 5.681e-5
0.681, 5.748e-5
0.682, 5.818e-5
0.683, 5.890e-5
0.684, 5.964e-5
0.685, 6.039e-5
0.686, 6.115e-5
0.687, 6.194e-5
0.688, 6.276e-5
0.689, 6.357e-5
0.690, 6.441e-5
0.691, 6.527e-5
0.692, 6.617e-5
0.693, 6.707e-5
0.694, 6.801e-5
0.695, 6.896e-5
0.696, 6.996e-5
0.697, 7.094e-5
0.698, 7.196e-5
0.699, 7.301e-5
0.700, 7.404e-5
0.701, 7.512e-5
0.702, 7.624e-5
0.703, 7.736e-5
0.704, 7.854e-5
0.705, 7.974e-5
0.706, 8.092e-5
0.707, 8.214e-5
0.708, 8.338e-5
0.709, 8.465e-5
0.710, 8.597e-5
0.711, 8.730e-5
0.712, 8.865e-5
0.713, 9.002e-5
0.714, 9.139e-5
0.715, 9.281e-5
0.716, 9.427e-5
0.717, 9.574e-5
0.718, 9.724e-5
0.719, 9.875e-5
0.720, 1.003e-4
0.721, 1.019e-4
0.722, 1.035e-4
0.723, 1.051e-4
0.724, 1.068e-4
0.725, 1.085e-4
0.726, 1.102e-4
0.727, 1.119e-4
0.728, 1.136e-4
0.729, 1.154e-4
0.730, 1.172e-4
0.731, 1.191e-4
0.732, 1.209e-4
0.733, 1.228e-4
0.734, 1.247e-4
0.735, 1.266e-4
0.736, 1.286e-4
0.737, 1.306e-4
0.738, 1.326e-4
0.739, 1.346e-4
0.740, 1.367e-4
0.741, 1.388e-4
0.742, 1.409e-4
0.743, 1.430e-4
0.744, 1.451e-4
0.745, 1.473e-4
0.746, 1.495e-4
0.747, 1.517e-4
0.748, 1.540e-4
0.749, 1.562e-4
0.750, 1.585e-4
0.751, 1.608e-4
0.752, 1.632e-4
0.753, 1.656e-4
0.754, 1.679e-4
0.755, 1.703e-4
0.756, 1.728e-4
0.757, 1.753e-4
0.758, 1.778e-4
0.759, 1.802e-4
0.760, 1.827e-4
0.761, 1.853e-4
0.762, 1.879e-4
0.763, 1.905e-4
0.764, 1.931e-4
0.765, 1.957e-4
0.766, 1.984e-4
0.767, 2.010e-4
0.768, 2.038e-4
0.769, 2.065e-4
0.770, 2.092e-4
0.771, 2.120e-4
0.772, 2.148e-4
0.773, 2.176e-4
0.774, 2.204e-4
0.775, 2.232e-4
0.776, 2.261e-4
0.777, 2.290e-4
0.778, 2.319e-4
0.779, 2.348e-4
0.780, 2.377e-4
0.781, 2.406e-4
0.782, 2.436e-4
0.783, 2.466e-4
0.784, 2.496e-4
0.785, 2.527e-4
0.786, 2.557e-4
0.787, 2.587e-4
0.788, 2.618e-4
0.789, 2.648e-4
0.790, 2.680e-4
0.791, 2.712e-4
0.792, 2.743e-4
0.793, 2.774e-4
0.794, 2.805e-4
0.795, 2.837e-4
0.796, 2.869e-4
0.797, 2.901e-4
0.798, 2.932e-4
0.799, 2.964e-4
0.800, 2.992e-4
0.799, 2.971e-4
0.798, 2.924e-4
0.797, 2.876e-4
0.796, 2.830e-4
0.795, 2.784e-4
0.794, 2.740e-4
0.793, 2.697e-4
0.792, 2.654e-4
0.791, 2.611e-4
0.790, 2.569e-4
0.789, 2.528e-4
0.788, 2.487e-4
0.787, 2.446e-4
0.786, 2.406e-4
0.785, 2.367e-4
0.784, 2.328e-4
0.783, 2.289e-4
0.782, 2.251e-4
0.781, 2.213e-4
0.780, 2.175e-4
0.779, 2.137e-4
0.778, 2.100e-4
0.777, 2.065e-4
0.776, 2.029e-4
0.775, 1.993e-4
0.774, 1.958e-4
0.773, 1.923e-4
0.772, 1.889e-4
0.771, 1.854e-4
0.770, 1.820e-4
0.769, 1.787e-4
0.768, 1.754e-4
0.767, 1.721e-4
0.766, 1.689e-4
0.765, 1.658e-4
0.764, 1.626e-4
0.763, 1.595e-4
0.762, 1.565e-4
0.761, 1.534e-4
0.760, 1.504e-4
0.759, 1.475e-4
0.758, 1.445e-4
0.757, 1.417e-4
0.756, 1.388e-4
0.755, 1.360e-4
0.754, 1.332e-4
0.753, 1.304e-4
0.752, 1.277e-4
0.751, 1.249e-4
0.750, 1.223e-4
0.749, 1.197e-4
0.748, 1.171e-4
0.747, 1.146e-4
0.746, 1.121e-4
0.745, 1.096e-4
0.744, 1.072e-4
0.743, 1.048e-4
0.742, 1.024e-4
0.741, 1.000e-4
0.740, 9.773e-5
0.739, 9.544e-5
0.738, 9.318e-5
0.737, 9.098e-5
0.736, 8.879e-5
0.735, 8.664e-5
0.734, 8.453e-5
0.733, 8.244e-5
0.732, 8.039e-5
0.731, 7.837e-5
0.730, 7.639e-5
0.729, 7.444e-5
0.728, 7.251e-5
0.727, 7.061e-5
0.726, 6.876e-5
0.725, 6.694e-5
0.724, 6.517e-5
0.723, 6.338e-5
0.722, 6.163e-5
0.721, 5.993e-5
0.720, 5.825e-5
0.719, 5.661e-5
0.718, 5.498e-5
0.717, 5.337e-5
0.716, 5.179e-5
0.715, 5.028e-5
0.714, 4.879e-5
0.713, 4.733e-5
0.712, 4.587e-5
0.711, 4.446e-5
0.710, 4.308e-5
0.709, 4.171e-5
0.708, 4.039e-5
0.707, 3.908e-5
0.706, 3.780e-5
0.705, 3.655e-5
0.704, 3.531e-5
0.703, 3.410e-5
0.702, 3.293e-5
0.701, 3.178e-5
0.700, 3.066e-5
0.699, 2.956e-5
0.698, 2.849e-5
0.697, 2.743e-5
0.696, 2.639e-5
0.695, 2.539e-5
0.694, 2.441e-5
0.693, 2.344e-5
0.692, 2.250e-5
0.691, 2.157e-5
0.690, 2.068e-5
0.689, 1.981e-5
0.688, 1.895e-5
0.687, 1.813e-5
0.686, 1.732e-5
0.685, 1.653e-5
0.684, 1.574e-5
0.683, 1.498e-5
0.682, 1.424e-5
0.681, 1.353e-5
0.680, 1.282e-5
0.679, 1.214e-5
0.678, 1.146e-5
0.677, 1.080e-5
0.676, 1.016e-5
0.675, 9.525e-6
0.674, 8.915e-6
0.673, 8.325e-6
0.672, 7.736e-6
0.671, 7.169e-6
0.670, 6.620e-6
0.669, 6.079e-6
0.668, 5.558e-6
0.667, 5.048e-6
0.666, 4.546e-6
0.665, 4.053e-6
0.664, 3.570e-6
0.663, 3.121e-6
0.662, 2.673e-6
0.661, 2.229e-6
0.660, 1.806e-6
0.659, 1.382e-6
0.658, 9.718e-7
0.657, 5.865e-7
0.656, 1.872e-7
0.655, -1.844e-7
0.654, -5.546e-7
0.653, -9.317e-7
0.652, -1.287e-6
0.651, -1.632e-6
0.650, -1.964e-6
0.649, -2.286e-6
0.648, -2.604e-6
0.647, -2.907e-6
0.646, -3.215e-6
0.645, -3.515e-6
0.644, -3.793e-6
0.643, -4.076e-6
0.642, -4.349e-6
0.641, -4.612e-6
0.640, -4.882e-6
0.639, -5.135e-6
0.638, -5.382e-6
0.637, -5.631e-6
0.636, -5.861e-6
0.635, -6.097e-6
0.634, -6.327e-6
0.633, -6.539e-6
0.632, -6.755e-6
0.631, -6.962e-6
0.630, -7.175e-6
0.629, -7.382e-6
0.628, -7.568e-6
0.627, -7.765e-6
0.626, -7.961e-6
0.625, -8.134e-6
0.624, -8.320e-6
0.623, -8.495e-6
0.622, -8.659e-6
0.621, -8.835e-6
0.620, -8.999e-6
0.619, -9.159e-6
0.618, -9.314e-6
0.617, -9.458e-6
0.616, -9.611e-6
0.615, -9.759e-6
0.614, -9.918e-6
0.613, -1.006e-5
0.612, -1.017e-5
0.611, -1.031e-5
0.610, -1.044e-5
0.609, -1.056e-5
0.608, -1.069e-5
0.607, -1.081e-5
0.606, -1.092e-5
0.605, -1.104e-5
0.604, -1.115e-5
0.603, -1.125e-5
0.602, -1.135e-5
0.601, -1.145e-5
0.600, -1.155e-5
0.599, -1.164e-5
0.598, -1.172e-5
0.597, -1.182e-5
0.596, -1.189e-5
0.595, -1.198e-5
0.594, -1.206e-5
0.593, -1.213e-5
0.592, -1.221e-5
0.591, -1.228e-5
0.590, -1.234e-5
0.589, -1.242e-5
0.588, -1.248e-5
0.587, -1.253e-5
0.586, -1.259e-5
0.585, -1.264e-5
0.584, -1.270e-5
0.583, -1.275e-5
0.582, -1.281e-5
0.581, -1.286e-5
0.580, -1.289e-5
0.579, -1.293e-5
0.578, -1.297e-5
0.577, -1.300e-5
0.576, -1.304e-5
0.575, -1.307e-5
0.574, -1.310e-5
0.573, -1.313e-5
0.572, -1.314e-5
0.571, -1.317e-5
0.570, -1.319e-5
0.569, -1.321e-5
0.568, -1.324e-5
0.567, -1.325e-5
0.566, -1.326e-5
0.565, -1.326e-5
0.564, -1.326e-5
0.563, -1.328e-5
0.562, -1.329e-5
0.561, -1.327e-5
0.560, -1.326e-5
0.559, -1.325e-5
0.558, -1.324e-5
0.557, -1.324e-5
0.556, -1.323e-5
0.555, -1.322e-5
0.554, -1.321e-5
0.553, -1.319e-5
0.552, -1.319e-5
0.551, -1.316e-5
0.550, -1.315e-5
0.549, -1.313e-5
0.548, -1.310e-5
0.547, -1.309e-5
0.546, -1.307e-5
0.545, -1.304e-5
0.544, -1.302e-5
0.543, -1.300e-5
0.542, -1.297e-5
0.541, -1.295e-5
0.540, -1.292e-5
0.539, -1.289e-5
0.538, -1.287e-5
0.537, -1.284e-5
0.536, -1.280e-5
0.535, -1.276e-5
0.534, -1.272e-5
0.533, -1.269e-5
0.532, -1.266e-5
0.531, -1.262e-5
0.530, -1.258e-5
0.529, -1.253e-5
0.528, -1.250e-5
0.527, -1.246e-5
0.526, -1.242e-5
0.525, -1.239e-5
0.524, -1.236e-5
0.523, -1.233e-5
0.522, -1.229e-5
0.521, -1.224e-5
0.520, -1.221e-5
0.519, -1.217e-5
0.518, -1.213e-5
0.517, -1.211e-5
0.516, -1.206e-5
0.515, -1.202e-5
0.514, -1.198e-5
0.513, -1.194e-5
0.512, -1.191e-5
0.511, -1.189e-5
0.510, -1.183e-5
0.509, -1.179e-5
0.508, -1.173e-5
0.507, -1.169e-5
0.506, -1.166e-5
0.505, -1.161e-5
0.504, -1.157e-5
0.503, -1.153e-5
0.502, -1.149e-5
0.501, -1.147e-5
0.500, -1.144e-5
0.499, -1.140e-5
0.498, -1.135e-5
0.497, -1.130e-5
0.496, -1.127e-5
0.495, -1.123e-5
0.494, -1.119e-5
0.493, -1.115e-5
0.492, -1.112e-5
0.491, -1.108e-5
0.490, -1.104e-5
0.489, -1.101e-5
0.488, -1.098e-5
0.487, -1.095e-5
0.486, -1.091e-5
0.485, -1.087e-5
0.484, -1.084e-5
0.483, -1.081e-5
0.482, -1.077e-5
0.481, -1.074e-5
0.480, -1.073e-5
0.479, -1.070e-5
0.478, -1.066e-5
0.477, -1.064e-5
0.476, -1.061e-5
0.475, -1.058e-5
0.474, -1.056e-5
0.473, -1.054e-5
0.472, -1.053e-5
0.471, -1.049e-5
0.470, -1.046e-5
0.469, -1.044e-5
0.468, -1.041e-5
0.467, -1.040e-5
0.466, -1.039e-5
0.465, -1.037e-5
0.464, -1.034e-5
0.463, -1.032e-5
0.462, -1.030e-5
0.461, -1.029e-5
0.460, -1.028e-5
0.459, -1.026e-5
0.458, -1.024e-5
0.457, -1.022e-5
0.456, -1.021e-5
0.455, -1.020e-5
0.454, -1.018e-5
0.453, -1.018e-5
0.452, -1.016e-5
0.451, -1.016e-5
0.450, -1.015e-5
0.449, -1.012e-5
0.448, -1.011e-5
0.447, -1.010e-5
0.446, -1.008e-5
0.445, -1.007e-5
0.444, -1.005e-5
0.443, -1.005e-5
0.442, -1.005e-5
0.441, -1.004e-5
0.440, -1.003e-5
0.439, -1.002e-5
0.438, -1.002e-5
0.437, -1.002e-5
0.436, -1.001e-5
0.435, -1.002e-5
0.434, -1.002e-5
0.433, -1.002e-5
0.432, -1.002e-5
0.431, -1.003e-5
0.430, -1.003e-5
0.429, -1.003e-5
0.428, -1.003e-5
0.427, -1.003e-5
0.426, -1.003e-5
0.425, -1.003e-5
0.424, -1.004e-5
0.423, -1.004e-5
0.422, -1.006e-5
0.421, -1.007e-5
0.420, -1.007e-5
0.419, -1.007e-5
0.418, -1.008e-5
0.417, -1.009e-5
0.416, -1.010e-5
0.415, -1.011e-5
0.414, -1.012e-5
0.413, -1.014e-5
0.412, -1.015e-5
0.411, -1.016e-5
0.410, -1.018e-5
0.409, -1.019e-5
0.408, -1.021e-5
0.407, -1.022e-5
0.406, -1.024e-5
0.405, -1.026e-5
0.404, -1.027e-5
0.403, -1.029e-5
0.402, -1.031e-5
0.401, -1.032e-5
0.400, -1.035e-5
0.399, -1.037e-5
0.398, -1.039e-5
0.397, -1.041e-5
0.396, -1.042e-5
0.395, -1.045e-5
0.394, -1.047e-5
0.393, -1.049e-5
0.392, -1.051e-5
0.391, -1.053e-5
0.390, -1.056e-5
0.389, -1.059e-5
0.388, -1.061e-5
0.387, -1.065e-5
0.386, -1.067e-5
0.385, -1.070e-5
0.384, -1.073e-5
0.383, -1.076e-5
0.382, -1.079e-5
0.381, -1.082e-5
0.380, -1.085e-5
0.379, -1.089e-5
0.378, -1.092e-5
0.377, -1.096e-5
0.376, -1.099e-5
0.375, -1.102e-5
0.374, -1.106e-5
0.373, -1.109e-5
0.372, -1.113e-5
0.371, -1.118e-5
0.370, -1.123e-5
0.369, -1.126e-5
0.368, -1.131e-5
0.367, -1.134e-5
0.366, -1.139e-5
0.365, -1.145e-5
0.364, -1.149e-5
0.363, -1.155e-5
0.362, -1.159e-5
0.361, -1.163e-5
0.360, -1.169e-5
0.359, -1.175e-5
0.358, -1.180e-5
0.357, -1.185e-5
0.356, -1.190e-5
0.355, -1.195e-5
0.354, -1.200e-5
0.353, -1.204e-5
0.352, -1.210e-5
0.351, -1.216e-5
0.350, -1.222e-5
0.349, -1.228e-5
0.348, -1.233e-5
0.347, -1.240e-5
0.346, -1.246e-5
0.345, -1.253e-5
0.344, -1.260e-5
0.343, -1.266e-5
0.342, -1.273e-5
0.341, -1.281e-5
0.340, -1.287e-5
0.339, -1.295e-5
0.338, -1.303e-5
0.337, -1.310e-5
0.336, -1.318e-5
0.335, -1.325e-5
0.334, -1.332e-5
0.333, -1.341e-5
0.332, -1.349e-5
0.331, -1.357e-5
0.330, -1.366e-5
0.329, -1.374e-5
0.328, -1.383e-5
0.327, -1.391e-5
0.326, -1.400e-5
0.325, -1.410e-5
0.324, -1.418e-5
0.323, -1.427e-5
0.322, -1.438e-5
0.321, -1.448e-5
0.320, -1.459e-5
0.319, -1.469e-5
0.318, -1.479e-5
0.317, -1.488e-5
0.316, -1.497e-5
0.315, -1.507e-5
0.314, -1.518e-5
0.313, -1.529e-5
0.312, -1.540e-5
0.311, -1.551e-5
0.310, -1.562e-5
0.309, -1.575e-5
0.308, -1.586e-5
0.307, -1.601e-5
0.306, -1.615e-5
0.305, -1.626e-5
0.304, -1.639e-5
0.303, -1.652e-5
0.302, -1.665e-5
0.301, -1.678e-5
0.300, -1.691e-5
0.299, -1.704e-5
0.298, -1.717e-5
0.297, -1.730e-5
0.296, -1.745e-5
0.295, -1.760e-5
0.294, -1.775e-5
0.293, -1.790e-5
0.292, -1.804e-5
0.291, -1.818e-5
0.290, -1.833e-5
0.289, -1.848e-5
0.288, -1.865e-5
0.287, -1.882e-5
0.286, -1.898e-5
0.285, -1.916e-5
0.284, -1.933e-5
0.283, -1.950e-5
0.282, -1.968e-5
0.281, -1.985e-5
0.280, -2.003e-5
0.279, -2.021e-5
0.278, -2.040e-5
0.277, -2.058e-5
0.276, -2.077e-5
0.275, -2.097e-5
0.274, -2.116e-5
0.273, -2.134e-5
0.272, -2.154e-5
0.271, -2.174e-5
0.270, -2.194e-5
0.269, -2.215e-5
0.268, -2.236e-5
0.267, -2.258e-5
0.266, -2.280e-5
0.265, -2.302e-5
0.264, -2.325e-5
0.263, -2.347e-5
0.262, -2.369e-5
0.261, -2.392e-5
0.260, -2.414e-5
0.259, -2.438e-5
0.258, -2.462e-5
0.257, -2.485e-5
0.256, -2.508e-5
0.255, -2.532e-5
0.254, -2.556e-5
0.253, -2.582e-5
0.252, -2.606e-5
0.251, -2.631e-5
0.250, -2.655e-5
0.249, -2.679e-5
0.248, -2.703e-5
0.247, -2.726e-5
0.246, -2.751e-5
0.245, -2.776e-5
0.244, -2.800e-5
0.243, -2.826e-5
0.242, -2.850e-5
0.241, -2.875e-5
0.240, -2.900e-5
0.239, -2.924e-5
0.238, -2.949e-5
0.237, -2.974e-5
0.236, -2.999e-5
0.235, -3.022e-5
0.234, -3.045e-5
0.233, -3.068e-5
0.232, -3.089e-5
0.231, -3.111e-5
0.230, -3.132e-5
0.229, -3.154e-5
0.228, -3.173e-5
0.227, -3.192e-5
0.226, -3.212e-5
0.225, -3.229e-5
0.224, -3.247e-5
0.223, -3.264e-5
0.222, -3.279e-5
0.221, -3.292e-5
0.220, -3.304e-5
0.219, -3.315e-5
0.218, -3.326e-5
0.217, -3.334e-5
0.216, -3.339e-5
0.215, -3.343e-5
0.214, -3.346e-5
0.213, -3.349e-5
0.212, -3.348e-5
0.211, -3.346e-5
0.210, -3.341e-5
0.209, -3.333e-5
0.208, -3.324e-5
0.207, -3.311e-5
0.206, -3.297e-5
0.205, -3.282e-5
0.204, -3.263e-5
0.203, -3.241e-5
0.202, -3.217e-5
0.201, -3.191e-5
0.200, -3.163e-5
0.199, -3.132e-5
0.198, -3.100e-5
0.197, -3.068e-5
0.196, -3.033e-5
0.195, -2.998e-5
0.194, -2.960e-5
0.193, -2.923e-5
0.192, -2.887e-5
0.191, -2.848e-5
0.190, -2.810e-5
0.189, -2.772e-5
0.188, -2.731e-5
0.187, -2.694e-5
0.186, -2.657e-5
0.185, -2.620e-5
0.184, -2.585e-5
0.183, -2.550e-5
0.182, -2.517e-5
0.181, -2.484e-5
0.180, -2.450e-5
0.179, -2.415e-5
0.178, -2.382e-5
0.177, -2.350e-5
0.176, -2.321e-5
0.175, -2.291e-5
0.174, -2.259e-5
0.173, -2.231e-5
0.172, -2.202e-5
0.171, -2.174e-5
0.170, -2.148e-5
0.169, -2.121e-5
0.168, -2.095e-5
0.167, -2.070e-5
0.166, -2.045e-5
0.165, -2.021e-5
0.164, -1.997e-5
0.163, -1.973e-5
0.162, -1.950e-5
0.161, -1.928e-5
0.160, -1.907e-5
0.159, -1.886e-5
0.158, -1.865e-5
0.157, -1.844e-5
0.156, -1.824e-5
0.155, -1.804e-5
0.154, -1.785e-5
0.153, -1.767e-5
0.152, -1.748e-5
0.151, -1.731e-5
0.150, -1.714e-5
0.149, -1.696e-5
0.148, -1.680e-5
0.147, -1.664e-5
0.146, -1.648e-5
0.145, -1.630e-5
0.144, -1.614e-5
0.143, -1.598e-5
0.142, -1.583e-5
0.141, -1.569e-5
0.140, -1.555e-5
0.139, -1.541e-5
0.138, -1.528e-5
0.137, -1.515e-5
0.136, -1.502e-5
0.135, -1.489e-5
0.134, -1.477e-5
0.133, -1.465e-5
0.132, -1.452e-5
0.131, -1.440e-5
0.130, -1.428e-5
0.129, -1.417e-5
0.128, -1.406e-5
0.127, -1.394e-5
0.126, -1.383e-5
0.125, -1.373e-5
0.124, -1.362e-5
0.123, -1.352e-5
0.122, -1.341e-5
0.121, -1.330e-5
0.120, -1.321e-5
0.119, -1.311e-5
0.118, -1.301e-5
0.117, -1.292e-5
0.116, -1.284e-5
0.115, -1.276e-5
0.114, -1.267e-5
0.113, -1.258e-5
0.112, -1.250e-5
0.111, -1.241e-5
0.110, -1.233e-5
0.109, -1.226e-5
0.108, -1.217e-5
0.107, -1.209e-5
0.106, -1.201e-5
0.105, -1.194e-5
0.104, -1.186e-5
0.103, -1.179e-5
0.102, -1.172e-5
0.101, -1.166e-5
0.100, -1.159e-5
0.099, -1.152e-5
0.098, -1.145e-5
0.097, -1.137e-5
0.096, -1.130e-5
0.095, -1.125e-5
0.094, -1.119e-5
0.093, -1.112e-5
0.092, -1.105e-5
0.091, -1.099e-5
0.090, -1.091e-5
0.089, -1.084e-5
0.088, -1.077e-5
0.087, -1.071e-5
0.086, -1.065e-5
0.085, -1.059e-5
0.084, -1.054e-5
0.083, -1.048e-5
0.082, -1.043e-5
0.081, -1.037e-5
0.080, -1.031e-5
0.079, -1.027e-5
0.078, -1.022e-5
0.077, -1.016e-5
0.076, -1.012e-5
0.075, -1.006e-5
0.074, -1.003e-5
0.073, -9.982e-6
0.072, -9.938e-6
0.071, -9.891e-6
0.070, -9.840e-6
0.069, -9.807e-6
0.068, -9.768e-6
0.067, -9.720e-6
0.066, -9.668e-6
0.065, -9.623e-6
0.064, -9.584e-6
0.063, -9.533e-6
0.062, -9.477e-6
0.061, -9.439e-6
0.060, -9.390e-6
0.059, -9.349e-6
0.058, -9.307e-6
0.057, -9.261e-6
0.056, -9.229e-6
0.055, -9.194e-6
0.054, -9.151e-6
0.053, -9.121e-6
0.052, -9.084e-6
0.051, -9.048e-6
0.050, -9.004e-6
0.049, -8.972e-6
0.048, -8.925e-6
0.047, -8.882e-6
0.046, -8.851e-6
0.045, -8.812e-6
0.044, -8.772e-6
0.043, -8.737e-6
0.042, -8.698e-6
0.041, -8.672e-6
0.040, -8.634e-6
0.039, -8.591e-6
0.038, -8.558e-6
0.037, -8.529e-6
0.036, -8.496e-6
0.035, -8.470e-6
0.034, -8.434e-6
0.033, -8.395e-6
0.032, -8.367e-6
0.031, -8.339e-6
0.030, -8.308e-6
0.029, -8.286e-6
0.028, -8.250e-6
0.027, -8.210e-6
0.026, -8.175e-6
0.025, -8.154e-6
0.024, -8.127e-6
0.023, -8.098e-6
0.022, -8.069e-6
0.021, -8.042e-6
0.020, -8.012e-6
0.019, -7.989e-6
0.018, -7.962e-6
0.017, -7.928e-6
0.016, -7.899e-6
0.015, -7.872e-6
0.014, -7.847e-6
0.013, -7.826e-6
0.012, -7.799e-6
0.011, -7.774e-6
0.010, -7.747e-6
0.009, -7.724e-6
0.008, -7.700e-6
0.007, -7.674e-6
0.006, -7.649e-6
0.005, -7.617e-6
0.004, -7.593e-6
0.003, -7.566e-6
0.002, -7.542e-6
0.001, -7.517e-6
