Dec. 2, 2021   15:46:30
Cyclic Voltammetry
File: d:\Data Source:  Experiment
Instrument Model:  CHI660E
Header: 
Note: 

Init E (V) = 0
High E (V) = 0.8
Low E (V) = 0
Init P/N = P
Scan Rate (V/s) = 0.05
Segment = 6
Sample Interval (V) = 0.001
Quiet Time (sec) = 0
Sensitivity (A/V) = 1e-4

Segment 1:
Ep = 0.443V
ip = 3.517e-4A
Ah = 5.687e-4C

Segment 2:
Ep = 0.224V
ip = -1.700e-5A
Ah = -2.710e-5C

Segment 3:
Ep = 0.314V
ip = 3.434e-5A
Ah = 4.509e-5C

Segment 4:
Ep = 0.228V
ip = -6.662e-6A
Ah = -1.018e-5C

Segment 5:

Segment 6:
Ep = 0.236V
ip = -3.509e-6A
Ah = -4.732e-6C

Potential/V, Current/A

0.000, -5.055e-7
0.001, -4.327e-7
0.002, -3.900e-7
0.003, -3.593e-7
0.004, -3.329e-7
0.005, -3.123e-7
0.006, -2.944e-7
0.007, -2.756e-7
0.008, -2.578e-7
0.009, -2.398e-7
0.010, -2.263e-7
0.011, -2.106e-7
0.012, -1.960e-7
0.013, -1.831e-7
0.014, -1.704e-7
0.015, -1.580e-7
0.016, -1.456e-7
0.017, -1.340e-7
0.018, -1.240e-7
0.019, -1.144e-7
0.020, -1.057e-7
0.021, -9.627e-8
0.022, -8.683e-8
0.023, -7.936e-8
0.024, -7.031e-8
0.025, -6.117e-8
0.026, -5.389e-8
0.027, -4.662e-8
0.028, -3.925e-8
0.029, -3.305e-8
0.030, -2.597e-8
0.031, -1.929e-8
0.032, -1.172e-8
0.033, -7.196e-9
0.034, -2.674e-9
0.035, 3.126e-9
0.036, 7.157e-9
0.037, 1.070e-8
0.038, 1.551e-8
0.039, 2.092e-8
0.040, 2.623e-8
0.041, 3.193e-8
0.042, 3.636e-8
0.043, 4.186e-8
0.044, 4.746e-8
0.045, 4.992e-8
0.046, 5.533e-8
0.047, 6.015e-8
0.048, 6.388e-8
0.049, 6.850e-8
0.050, 7.273e-8
0.051, 7.843e-8
0.052, 8.374e-8
0.053, 8.728e-8
0.054, 9.062e-8
0.055, 9.475e-8
0.056, 9.908e-8
0.057, 1.037e-7
0.058, 1.086e-7
0.059, 1.113e-7
0.060, 1.161e-7
0.061, 1.186e-7
0.062, 1.214e-7
0.063, 1.252e-7
0.064, 1.298e-7
0.065, 1.327e-7
0.066, 1.360e-7
0.067, 1.385e-7
0.068, 1.429e-7
0.069, 1.446e-7
0.070, 1.485e-7
0.071, 1.519e-7
0.072, 1.548e-7
0.073, 1.593e-7
0.074, 1.609e-7
0.075, 1.641e-7
0.076, 1.658e-7
0.077, 1.679e-7
0.078, 1.692e-7
0.079, 1.726e-7
0.080, 1.750e-7
0.081, 1.782e-7
0.082, 1.827e-7
0.083, 1.847e-7
0.084, 1.884e-7
0.085, 1.912e-7
0.086, 1.950e-7
0.087, 1.984e-7
0.088, 2.018e-7
0.089, 2.055e-7
0.090, 2.098e-7
0.091, 2.126e-7
0.092, 2.138e-7
0.093, 2.171e-7
0.094, 2.210e-7
0.095, 2.234e-7
0.096, 2.270e-7
0.097, 2.297e-7
0.098, 2.332e-7
0.099, 2.363e-7
0.100, 2.400e-7
0.101, 2.422e-7
0.102, 2.460e-7
0.103, 2.519e-7
0.104, 2.545e-7
0.105, 2.583e-7
0.106, 2.620e-7
0.107, 2.659e-7
0.108, 2.694e-7
0.109, 2.725e-7
0.110, 2.759e-7
0.111, 2.802e-7
0.112, 2.829e-7
0.113, 2.880e-7
0.114, 2.938e-7
0.115, 2.984e-7
0.116, 3.040e-7
0.117, 3.075e-7
0.118, 3.125e-7
0.119, 3.196e-7
0.120, 3.251e-7
0.121, 3.325e-7
0.122, 3.369e-7
0.123, 3.432e-7
0.124, 3.503e-7
0.125, 3.582e-7
0.126, 3.641e-7
0.127, 3.725e-7
0.128, 3.826e-7
0.129, 3.908e-7
0.130, 3.972e-7
0.131, 4.058e-7
0.132, 4.146e-7
0.133, 4.242e-7
0.134, 4.361e-7
0.135, 4.480e-7
0.136, 4.582e-7
0.137, 4.713e-7
0.138, 4.828e-7
0.139, 4.962e-7
0.140, 5.099e-7
0.141, 5.254e-7
0.142, 5.410e-7
0.143, 5.564e-7
0.144, 5.730e-7
0.145, 5.898e-7
0.146, 6.069e-7
0.147, 6.253e-7
0.148, 6.451e-7
0.149, 6.645e-7
0.150, 6.859e-7
0.151, 7.067e-7
0.152, 7.276e-7
0.153, 7.519e-7
0.154, 7.756e-7
0.155, 8.004e-7
0.156, 8.276e-7
0.157, 8.520e-7
0.158, 8.803e-7
0.159, 9.044e-7
0.160, 9.339e-7
0.161, 9.640e-7
0.162, 9.935e-7
0.163, 1.024e-6
0.164, 1.057e-6
0.165, 1.090e-6
0.166, 1.124e-6
0.167, 1.158e-6
0.168, 1.189e-6
0.169, 1.223e-6
0.170, 1.258e-6
0.171, 1.293e-6
0.172, 1.327e-6
0.173, 1.363e-6
0.174, 1.400e-6
0.175, 1.435e-6
0.176, 1.471e-6
0.177, 1.508e-6
0.178, 1.544e-6
0.179, 1.582e-6
0.180, 1.620e-6
0.181, 1.656e-6
0.182, 1.691e-6
0.183, 1.725e-6
0.184, 1.760e-6
0.185, 1.797e-6
0.186, 1.831e-6
0.187, 1.864e-6
0.188, 1.896e-6
0.189, 1.928e-6
0.190, 1.959e-6
0.191, 1.990e-6
0.192, 2.021e-6
0.193, 2.053e-6
0.194, 2.083e-6
0.195, 2.113e-6
0.196, 2.144e-6
0.197, 2.172e-6
0.198, 2.203e-6
0.199, 2.233e-6
0.200, 2.262e-6
0.201, 2.293e-6
0.202, 2.322e-6
0.203, 2.351e-6
0.204, 2.381e-6
0.205, 2.413e-6
0.206, 2.441e-6
0.207, 2.467e-6
0.208, 2.494e-6
0.209, 2.519e-6
0.210, 2.543e-6
0.211, 2.569e-6
0.212, 2.595e-6
0.213, 2.615e-6
0.214, 2.638e-6
0.215, 2.655e-6
0.216, 2.673e-6
0.217, 2.692e-6
0.218, 2.709e-6
0.219, 2.728e-6
0.220, 2.745e-6
0.221, 2.761e-6
0.222, 2.779e-6
0.223, 2.797e-6
0.224, 2.817e-6
0.225, 2.838e-6
0.226, 2.857e-6
0.227, 2.881e-6
0.228, 2.906e-6
0.229, 2.931e-6
0.230, 2.964e-6
0.231, 2.996e-6
0.232, 3.031e-6
0.233, 3.070e-6
0.234, 3.110e-6
0.235, 3.153e-6
0.236, 3.202e-6
0.237, 3.252e-6
0.238, 3.308e-6
0.239, 3.364e-6
0.240, 3.424e-6
0.241, 3.484e-6
0.242, 3.547e-6
0.243, 3.621e-6
0.244, 3.699e-6
0.245, 3.778e-6
0.246, 3.865e-6
0.247, 3.957e-6
0.248, 4.053e-6
0.249, 4.157e-6
0.250, 4.264e-6
0.251, 4.381e-6
0.252, 4.502e-6
0.253, 4.632e-6
0.254, 4.773e-6
0.255, 4.923e-6
0.256, 5.086e-6
0.257, 5.256e-6
0.258, 5.434e-6
0.259, 5.628e-6
0.260, 5.837e-6
0.261, 6.057e-6
0.262, 6.298e-6
0.263, 6.550e-6
0.264, 6.816e-6
0.265, 7.107e-6
0.266, 7.419e-6
0.267, 7.742e-6
0.268, 8.084e-6
0.269, 8.447e-6
0.270, 8.831e-6
0.271, 9.231e-6
0.272, 9.655e-6
0.273, 1.010e-5
0.274, 1.056e-5
0.275, 1.105e-5
0.276, 1.157e-5
0.277, 1.210e-5
0.278, 1.265e-5
0.279, 1.323e-5
0.280, 1.383e-5
0.281, 1.445e-5
0.282, 1.509e-5
0.283, 1.576e-5
0.284, 1.645e-5
0.285, 1.715e-5
0.286, 1.788e-5
0.287, 1.863e-5
0.288, 1.940e-5
0.289, 2.020e-5
0.290, 2.103e-5
0.291, 2.187e-5
0.292, 2.275e-5
0.293, 2.366e-5
0.294, 2.459e-5
0.295, 2.555e-5
0.296, 2.654e-5
0.297, 2.757e-5
0.298, 2.862e-5
0.299, 2.971e-5
0.300, 3.084e-5
0.301, 3.201e-5
0.302, 3.321e-5
0.303, 3.443e-5
0.304, 3.570e-5
0.305, 3.701e-5
0.306, 3.836e-5
0.307, 3.976e-5
0.308, 4.119e-5
0.309, 4.265e-5
0.310, 4.415e-5
0.311, 4.567e-5
0.312, 4.725e-5
0.313, 4.886e-5
0.314, 5.050e-5
0.315, 5.218e-5
0.316, 5.390e-5
0.317, 5.566e-5
0.318, 5.744e-5
0.319, 5.927e-5
0.320, 6.113e-5
0.321, 6.303e-5
0.322, 6.495e-5
0.323, 6.692e-5
0.324, 6.892e-5
0.325, 7.096e-5
0.326, 7.303e-5
0.327, 7.515e-5
0.328, 7.732e-5
0.329, 7.950e-5
0.330, 8.171e-5
0.331, 8.396e-5
0.332, 8.626e-5
0.333, 8.860e-5
0.334, 9.099e-5
0.335, 9.342e-5
0.336, 9.589e-5
0.337, 9.837e-5
0.338, 1.009e-4
0.339, 1.034e-4
0.340, 1.060e-4
0.341, 1.086e-4
0.342, 1.113e-4
0.343, 1.140e-4
0.344, 1.167e-4
0.345, 1.195e-4
0.346, 1.223e-4
0.347, 1.251e-4
0.348, 1.280e-4
0.349, 1.309e-4
0.350, 1.338e-4
0.351, 1.367e-4
0.352, 1.397e-4
0.353, 1.427e-4
0.354, 1.457e-4
0.355, 1.488e-4
0.356, 1.519e-4
0.357, 1.550e-4
0.358, 1.581e-4
0.359, 1.612e-4
0.360, 1.643e-4
0.361, 1.675e-4
0.362, 1.706e-4
0.363, 1.738e-4
0.364, 1.770e-4
0.365, 1.802e-4
0.366, 1.834e-4
0.367, 1.866e-4
0.368, 1.899e-4
0.369, 1.931e-4
0.370, 1.963e-4
0.371, 1.995e-4
0.372, 2.028e-4
0.373, 2.060e-4
0.374, 2.092e-4
0.375, 2.124e-4
0.376, 2.156e-4
0.377, 2.188e-4
0.378, 2.220e-4
0.379, 2.252e-4
0.380, 2.284e-4
0.381, 2.316e-4
0.382, 2.348e-4
0.383, 2.379e-4
0.384, 2.411e-4
0.385, 2.442e-4
0.386, 2.473e-4
0.387, 2.504e-4
0.388, 2.535e-4
0.389, 2.566e-4
0.390, 2.596e-4
0.391, 2.626e-4
0.392, 2.656e-4
0.393, 2.686e-4
0.394, 2.716e-4
0.395, 2.745e-4
0.396, 2.774e-4
0.397, 2.803e-4
0.398, 2.832e-4
0.399, 2.860e-4
0.400, 2.888e-4
0.401, 2.915e-4
0.402, 2.942e-4
0.403, 2.970e-4
0.404, 2.996e-4
0.405, 3.022e-4
0.406, 3.047e-4
0.407, 3.072e-4
0.408, 3.097e-4
0.409, 3.122e-4
0.410, 3.146e-4
0.411, 3.170e-4
0.412, 3.193e-4
0.413, 3.216e-4
0.414, 3.238e-4
0.415, 3.260e-4
0.416, 3.281e-4
0.417, 3.302e-4
0.418, 3.322e-4
0.419, 3.342e-4
0.420, 3.361e-4
0.421, 3.380e-4
0.422, 3.397e-4
0.423, 3.414e-4
0.424, 3.431e-4
0.425, 3.446e-4
0.426, 3.462e-4
0.427, 3.476e-4
0.428, 3.489e-4
0.429, 3.501e-4
0.430, 3.514e-4
0.431, 3.525e-4
0.432, 3.536e-4
0.433, 3.546e-4
0.434, 3.555e-4
0.435, 3.564e-4
0.436, 3.571e-4
0.437, 3.577e-4
0.438, 3.583e-4
0.439, 3.588e-4
0.440, 3.592e-4
0.441, 3.595e-4
0.442, 3.596e-4
0.443, 3.597e-4
0.444, 3.597e-4
0.445, 3.595e-4
0.446, 3.593e-4
0.447, 3.589e-4
0.448, 3.585e-4
0.449, 3.581e-4
0.450, 3.575e-4
0.451, 3.568e-4
0.452, 3.560e-4
0.453, 3.552e-4
0.454, 3.541e-4
0.455, 3.530e-4
0.456, 3.518e-4
0.457, 3.505e-4
0.458, 3.491e-4
0.459, 3.476e-4
0.460, 3.460e-4
0.461, 3.442e-4
0.462, 3.423e-4
0.463, 3.403e-4
0.464, 3.381e-4
0.465, 3.359e-4
0.466, 3.336e-4
0.467, 3.312e-4
0.468, 3.286e-4
0.469, 3.259e-4
0.470, 3.232e-4
0.471, 3.203e-4
0.472, 3.173e-4
0.473, 3.142e-4
0.474, 3.111e-4
0.475, 3.079e-4
0.476, 3.047e-4
0.477, 3.014e-4
0.478, 2.979e-4
0.479, 2.944e-4
0.480, 2.908e-4
0.481, 2.871e-4
0.482, 2.832e-4
0.483, 2.794e-4
0.484, 2.755e-4
0.485, 2.716e-4
0.486, 2.677e-4
0.487, 2.638e-4
0.488, 2.599e-4
0.489, 2.560e-4
0.490, 2.521e-4
0.491, 2.482e-4
0.492, 2.442e-4
0.493, 2.402e-4
0.494, 2.363e-4
0.495, 2.322e-4
0.496, 2.283e-4
0.497, 2.244e-4
0.498, 2.205e-4
0.499, 2.167e-4
0.500, 2.131e-4
0.501, 2.095e-4
0.502, 2.059e-4
0.503, 2.025e-4
0.504, 1.991e-4
0.505, 1.957e-4
0.506, 1.925e-4
0.507, 1.894e-4
0.508, 1.864e-4
0.509, 1.834e-4
0.510, 1.805e-4
0.511, 1.777e-4
0.512, 1.750e-4
0.513, 1.724e-4
0.514, 1.697e-4
0.515, 1.672e-4
0.516, 1.647e-4
0.517, 1.624e-4
0.518, 1.601e-4
0.519, 1.580e-4
0.520, 1.560e-4
0.521, 1.540e-4
0.522, 1.520e-4
0.523, 1.502e-4
0.524, 1.483e-4
0.525, 1.466e-4
0.526, 1.448e-4
0.527, 1.432e-4
0.528, 1.415e-4
0.529, 1.399e-4
0.530, 1.384e-4
0.531, 1.369e-4
0.532, 1.355e-4
0.533, 1.341e-4
0.534, 1.328e-4
0.535, 1.315e-4
0.536, 1.303e-4
0.537, 1.291e-4
0.538, 1.279e-4
0.539, 1.269e-4
0.540, 1.259e-4
0.541, 1.249e-4
0.542, 1.239e-4
0.543, 1.230e-4
0.544, 1.221e-4
0.545, 1.213e-4
0.546, 1.204e-4
0.547, 1.195e-4
0.548, 1.187e-4
0.549, 1.179e-4
0.550, 1.171e-4
0.551, 1.163e-4
0.552, 1.155e-4
0.553, 1.148e-4
0.554, 1.140e-4
0.555, 1.133e-4
0.556, 1.126e-4
0.557, 1.119e-4
0.558, 1.113e-4
0.559, 1.107e-4
0.560, 1.101e-4
0.561, 1.095e-4
0.562, 1.090e-4
0.563, 1.084e-4
0.564, 1.079e-4
0.565, 1.073e-4
0.566, 1.068e-4
0.567, 1.063e-4
0.568, 1.059e-4
0.569, 1.054e-4
0.570, 1.049e-4
0.571, 1.045e-4
0.572, 1.040e-4
0.573, 1.036e-4
0.574, 1.031e-4
0.575, 1.027e-4
0.576, 1.023e-4
0.577, 1.018e-4
0.578, 1.014e-4
0.579, 1.010e-4
0.580, 1.006e-4
0.581, 1.002e-4
0.582, 9.985e-5
0.583, 9.952e-5
0.584, 9.921e-5
0.585, 9.891e-5
0.586, 9.863e-5
0.587, 9.836e-5
0.588, 9.808e-5
0.589, 9.782e-5
0.590, 9.758e-5
0.591, 9.732e-5
0.592, 9.710e-5
0.593, 9.690e-5
0.594, 9.670e-5
0.595, 9.651e-5
0.596, 9.630e-5
0.597, 9.611e-5
0.598, 9.594e-5
0.599, 9.574e-5
0.600, 9.558e-5
0.601, 9.541e-5
0.602, 9.524e-5
0.603, 9.511e-5
0.604, 9.496e-5
0.605, 9.485e-5
0.606, 9.474e-5
0.607, 9.464e-5
0.608, 9.459e-5
0.609, 9.455e-5
0.610, 9.449e-5
0.611, 9.445e-5
0.612, 9.440e-5
0.613, 9.437e-5
0.614, 9.440e-5
0.615, 9.443e-5
0.616, 9.447e-5
0.617, 9.449e-5
0.618, 9.453e-5
0.619, 9.462e-5
0.620, 9.468e-5
0.621, 9.477e-5
0.622, 9.488e-5
0.623, 9.496e-5
0.624, 9.505e-5
0.625, 9.514e-5
0.626, 9.527e-5
0.627, 9.544e-5
0.628, 9.560e-5
0.629, 9.576e-5
0.630, 9.593e-5
0.631, 9.611e-5
0.632, 9.628e-5
0.633, 9.645e-5
0.634, 9.664e-5
0.635, 9.686e-5
0.636, 9.708e-5
0.637, 9.732e-5
0.638, 9.760e-5
0.639, 9.787e-5
0.640, 9.818e-5
0.641, 9.852e-5
0.642, 9.885e-5
0.643, 9.919e-5
0.644, 9.953e-5
0.645, 9.990e-5
0.646, 1.003e-4
0.647, 1.007e-4
0.648, 1.012e-4
0.649, 1.016e-4
0.650, 1.020e-4
0.651, 1.025e-4
0.652, 1.030e-4
0.653, 1.035e-4
0.654, 1.040e-4
0.655, 1.045e-4
0.656, 1.051e-4
0.657, 1.057e-4
0.658, 1.062e-4
0.659, 1.069e-4
0.660, 1.075e-4
0.661, 1.081e-4
0.662, 1.088e-4
0.663, 1.095e-4
0.664, 1.102e-4
0.665, 1.109e-4
0.666, 1.117e-4
0.667, 1.125e-4
0.668, 1.132e-4
0.669, 1.140e-4
0.670, 1.148e-4
0.671, 1.156e-4
0.672, 1.165e-4
0.673, 1.174e-4
0.674, 1.183e-4
0.675, 1.192e-4
0.676, 1.202e-4
0.677, 1.211e-4
0.678, 1.221e-4
0.679, 1.231e-4
0.680, 1.241e-4
0.681, 1.251e-4
0.682, 1.262e-4
0.683, 1.273e-4
0.684, 1.285e-4
0.685, 1.296e-4
0.686, 1.308e-4
0.687, 1.320e-4
0.688, 1.332e-4
0.689, 1.345e-4
0.690, 1.358e-4
0.691, 1.371e-4
0.692, 1.384e-4
0.693, 1.397e-4
0.694, 1.411e-4
0.695, 1.425e-4
0.696, 1.439e-4
0.697, 1.453e-4
0.698, 1.468e-4
0.699, 1.483e-4
0.700, 1.498e-4
0.701, 1.514e-4
0.702, 1.529e-4
0.703, 1.545e-4
0.704, 1.561e-4
0.705, 1.578e-4
0.706, 1.594e-4
0.707, 1.611e-4
0.708, 1.628e-4
0.709, 1.646e-4
0.710, 1.663e-4
0.711, 1.681e-4
0.712, 1.700e-4
0.713, 1.718e-4
0.714, 1.737e-4
0.715, 1.755e-4
0.716, 1.774e-4
0.717, 1.793e-4
0.718, 1.813e-4
0.719, 1.832e-4
0.720, 1.852e-4
0.721, 1.871e-4
0.722, 1.891e-4
0.723, 1.912e-4
0.724, 1.931e-4
0.725, 1.952e-4
0.726, 1.972e-4
0.727, 1.993e-4
0.728, 2.014e-4
0.729, 2.035e-4
0.730, 2.056e-4
0.731, 2.078e-4
0.732, 2.100e-4
0.733, 2.122e-4
0.734, 2.144e-4
0.735, 2.166e-4
0.736, 2.188e-4
0.737, 2.211e-4
0.738, 2.233e-4
0.739, 2.256e-4
0.740, 2.279e-4
0.741, 2.302e-4
0.742, 2.324e-4
0.743, 2.347e-4
0.744, 2.370e-4
0.745, 2.393e-4
0.746, 2.416e-4
0.747, 2.440e-4
0.748, 2.463e-4
0.749, 2.487e-4
0.750, 2.511e-4
0.751, 2.535e-4
0.752, 2.558e-4
0.753, 2.582e-4
0.754, 2.606e-4
0.755, 2.629e-4
0.756, 2.653e-4
0.757, 2.677e-4
0.758, 2.701e-4
0.759, 2.724e-4
0.760, 2.747e-4
0.761, 2.771e-4
0.762, 2.795e-4
0.763, 2.819e-4
0.764, 2.843e-4
0.765, 2.867e-4
0.766, 2.891e-4
0.767, 2.914e-4
0.768, 2.938e-4
0.769, 2.962e-4
0.770, 2.985e-4
0.771, 3.009e-4
0.772, 3.031e-4
0.773, 3.054e-4
0.774, 3.077e-4
0.775, 3.100e-4
0.776, 3.122e-4
0.777, 3.143e-4
0.778, 3.164e-4
0.779, 3.186e-4
0.780, 3.208e-4
0.781, 3.230e-4
0.782, 3.251e-4
0.783, 3.271e-4
0.784, 3.293e-4
0.785, 3.314e-4
0.786, 3.335e-4
0.787, 3.356e-4
0.788, 3.375e-4
0.789, 3.395e-4
0.790, 3.414e-4
0.791, 3.434e-4
0.792, 3.454e-4
0.793, 3.474e-4
0.794, 3.493e-4
0.795, 3.512e-4
0.796, 3.530e-4
0.797, 3.549e-4
0.798, 3.566e-4
0.799, 3.584e-4
0.800, 3.594e-4
0.799, 3.543e-4
0.798, 3.462e-4
0.797, 3.384e-4
0.796, 3.310e-4
0.795, 3.240e-4
0.794, 3.173e-4
0.793, 3.107e-4
0.792, 3.043e-4
0.791, 2.981e-4
0.790, 2.920e-4
0.789, 2.861e-4
0.788, 2.804e-4
0.787, 2.746e-4
0.786, 2.692e-4
0.785, 2.638e-4
0.784, 2.585e-4
0.783, 2.534e-4
0.782, 2.483e-4
0.781, 2.434e-4
0.780, 2.387e-4
0.779, 2.340e-4
0.778, 2.294e-4
0.777, 2.248e-4
0.776, 2.204e-4
0.775, 2.161e-4
0.774, 2.118e-4
0.773, 2.077e-4
0.772, 2.036e-4
0.771, 1.996e-4
0.770, 1.956e-4
0.769, 1.917e-4
0.768, 1.880e-4
0.767, 1.843e-4
0.766, 1.807e-4
0.765, 1.771e-4
0.764, 1.737e-4
0.763, 1.703e-4
0.762, 1.670e-4
0.761, 1.637e-4
0.760, 1.605e-4
0.759, 1.573e-4
0.758, 1.542e-4
0.757, 1.511e-4
0.756, 1.482e-4
0.755, 1.452e-4
0.754, 1.422e-4
0.753, 1.394e-4
0.752, 1.365e-4
0.751, 1.338e-4
0.750, 1.311e-4
0.749, 1.285e-4
0.748, 1.259e-4
0.747, 1.233e-4
0.746, 1.209e-4
0.745, 1.184e-4
0.744, 1.160e-4
0.743, 1.137e-4
0.742, 1.113e-4
0.741, 1.091e-4
0.740, 1.068e-4
0.739, 1.046e-4
0.738, 1.024e-4
0.737, 1.003e-4
0.736, 9.814e-5
0.735, 9.603e-5
0.734, 9.398e-5
0.733, 9.197e-5
0.732, 9.002e-5
0.731, 8.807e-5
0.730, 8.614e-5
0.729, 8.424e-5
0.728, 8.238e-5
0.727, 8.057e-5
0.726, 7.877e-5
0.725, 7.703e-5
0.724, 7.537e-5
0.723, 7.371e-5
0.722, 7.206e-5
0.721, 7.047e-5
0.720, 6.889e-5
0.719, 6.734e-5
0.718, 6.582e-5
0.717, 6.429e-5
0.716, 6.277e-5
0.715, 6.129e-5
0.714, 5.987e-5
0.713, 5.847e-5
0.712, 5.712e-5
0.711, 5.580e-5
0.710, 5.449e-5
0.709, 5.321e-5
0.708, 5.194e-5
0.707, 5.068e-5
0.706, 4.947e-5
0.705, 4.827e-5
0.704, 4.707e-5
0.703, 4.589e-5
0.702, 4.473e-5
0.701, 4.359e-5
0.700, 4.250e-5
0.699, 4.145e-5
0.698, 4.039e-5
0.697, 3.933e-5
0.696, 3.828e-5
0.695, 3.728e-5
0.694, 3.630e-5
0.693, 3.533e-5
0.692, 3.440e-5
0.691, 3.348e-5
0.690, 3.258e-5
0.689, 3.172e-5
0.688, 3.085e-5
0.687, 2.999e-5
0.686, 2.916e-5
0.685, 2.833e-5
0.684, 2.753e-5
0.683, 2.674e-5
0.682, 2.597e-5
0.681, 2.523e-5
0.680, 2.450e-5
0.679, 2.379e-5
0.678, 2.308e-5
0.677, 2.238e-5
0.676, 2.172e-5
0.675, 2.106e-5
0.674, 2.041e-5
0.673, 1.978e-5
0.672, 1.915e-5
0.671, 1.854e-5
0.670, 1.794e-5
0.669, 1.735e-5
0.668, 1.680e-5
0.667, 1.624e-5
0.666, 1.569e-5
0.665, 1.514e-5
0.664, 1.461e-5
0.663, 1.411e-5
0.662, 1.362e-5
0.661, 1.313e-5
0.660, 1.265e-5
0.659, 1.218e-5
0.658, 1.171e-5
0.657, 1.127e-5
0.656, 1.081e-5
0.655, 1.038e-5
0.654, 9.968e-6
0.653, 9.552e-6
0.652, 9.158e-6
0.651, 8.772e-6
0.650, 8.384e-6
0.649, 8.008e-6
0.648, 7.629e-6
0.647, 7.262e-6
0.646, 6.895e-6
0.645, 6.539e-6
0.644, 6.203e-6
0.643, 5.870e-6
0.642, 5.547e-6
0.641, 5.239e-6
0.640, 4.917e-6
0.639, 4.603e-6
0.638, 4.300e-6
0.637, 3.996e-6
0.636, 3.715e-6
0.635, 3.438e-6
0.634, 3.165e-6
0.633, 2.897e-6
0.632, 2.633e-6
0.631, 2.377e-6
0.630, 2.123e-6
0.629, 1.869e-6
0.628, 1.631e-6
0.627, 1.381e-6
0.626, 1.145e-6
0.625, 9.250e-7
0.624, 6.964e-7
0.623, 4.871e-7
0.622, 2.812e-7
0.621, 7.263e-8
0.620, -1.279e-7
0.619, -3.308e-7
0.618, -5.335e-7
0.617, -7.198e-7
0.616, -9.234e-7
0.615, -1.113e-6
0.614, -1.304e-6
0.613, -1.483e-6
0.612, -1.643e-6
0.611, -1.816e-6
0.610, -1.979e-6
0.609, -2.133e-6
0.608, -2.301e-6
0.607, -2.452e-6
0.606, -2.592e-6
0.605, -2.739e-6
0.604, -2.883e-6
0.603, -3.022e-6
0.602, -3.157e-6
0.601, -3.294e-6
0.600, -3.427e-6
0.599, -3.546e-6
0.598, -3.670e-6
0.597, -3.793e-6
0.596, -3.904e-6
0.595, -4.029e-6
0.594, -4.149e-6
0.593, -4.252e-6
0.592, -4.367e-6
0.591, -4.468e-6
0.590, -4.566e-6
0.589, -4.682e-6
0.588, -4.780e-6
0.587, -4.870e-6
0.586, -4.969e-6
0.585, -5.054e-6
0.584, -5.147e-6
0.583, -5.229e-6
0.582, -5.315e-6
0.581, -5.404e-6
0.580, -5.477e-6
0.579, -5.555e-6
0.578, -5.632e-6
0.577, -5.700e-6
0.576, -5.777e-6
0.575, -5.850e-6
0.574, -5.913e-6
0.573, -5.985e-6
0.572, -6.042e-6
0.571, -6.106e-6
0.570, -6.168e-6
0.569, -6.226e-6
0.568, -6.282e-6
0.567, -6.332e-6
0.566, -6.384e-6
0.565, -6.436e-6
0.564, -6.481e-6
0.563, -6.543e-6
0.562, -6.600e-6
0.561, -6.634e-6
0.560, -6.675e-6
0.559, -6.712e-6
0.558, -6.745e-6
0.557, -6.790e-6
0.556, -6.831e-6
0.555, -6.871e-6
0.554, -6.912e-6
0.553, -6.943e-6
0.552, -6.978e-6
0.551, -7.006e-6
0.550, -7.045e-6
0.549, -7.079e-6
0.548, -7.101e-6
0.547, -7.132e-6
0.546, -7.157e-6
0.545, -7.175e-6
0.544, -7.205e-6
0.543, -7.226e-6
0.542, -7.244e-6
0.541, -7.274e-6
0.540, -7.285e-6
0.539, -7.308e-6
0.538, -7.334e-6
0.537, -7.349e-6
0.536, -7.370e-6
0.535, -7.389e-6
0.534, -7.400e-6
0.533, -7.422e-6
0.532, -7.438e-6
0.531, -7.461e-6
0.530, -7.482e-6
0.529, -7.488e-6
0.528, -7.514e-6
0.527, -7.529e-6
0.526, -7.533e-6
0.525, -7.547e-6
0.524, -7.551e-6
0.523, -7.561e-6
0.522, -7.573e-6
0.521, -7.581e-6
0.520, -7.603e-6
0.519, -7.618e-6
0.518, -7.627e-6
0.517, -7.644e-6
0.516, -7.645e-6
0.515, -7.648e-6
0.514, -7.648e-6
0.513, -7.652e-6
0.512, -7.670e-6
0.511, -7.686e-6
0.510, -7.681e-6
0.509, -7.688e-6
0.508, -7.692e-6
0.507, -7.696e-6
0.506, -7.708e-6
0.505, -7.715e-6
0.504, -7.719e-6
0.503, -7.723e-6
0.502, -7.733e-6
0.501, -7.742e-6
0.500, -7.745e-6
0.499, -7.759e-6
0.498, -7.765e-6
0.497, -7.763e-6
0.496, -7.775e-6
0.495, -7.783e-6
0.494, -7.789e-6
0.493, -7.806e-6
0.492, -7.807e-6
0.491, -7.817e-6
0.490, -7.833e-6
0.489, -7.843e-6
0.488, -7.852e-6
0.487, -7.863e-6
0.486, -7.874e-6
0.485, -7.887e-6
0.484, -7.893e-6
0.483, -7.909e-6
0.482, -7.924e-6
0.481, -7.923e-6
0.480, -7.939e-6
0.479, -7.951e-6
0.478, -7.959e-6
0.477, -7.971e-6
0.476, -7.975e-6
0.475, -7.990e-6
0.474, -8.006e-6
0.473, -8.017e-6
0.472, -8.034e-6
0.471, -8.048e-6
0.470, -8.057e-6
0.469, -8.067e-6
0.468, -8.069e-6
0.467, -8.092e-6
0.466, -8.113e-6
0.465, -8.116e-6
0.464, -8.137e-6
0.463, -8.149e-6
0.462, -8.157e-6
0.461, -8.183e-6
0.460, -8.206e-6
0.459, -8.216e-6
0.458, -8.224e-6
0.457, -8.233e-6
0.456, -8.251e-6
0.455, -8.265e-6
0.454, -8.276e-6
0.453, -8.295e-6
0.452, -8.298e-6
0.451, -8.312e-6
0.450, -8.328e-6
0.449, -8.336e-6
0.448, -8.366e-6
0.447, -8.389e-6
0.446, -8.410e-6
0.445, -8.435e-6
0.444, -8.456e-6
0.443, -8.483e-6
0.442, -8.500e-6
0.441, -8.510e-6
0.440, -8.535e-6
0.439, -8.564e-6
0.438, -8.586e-6
0.437, -8.612e-6
0.436, -8.630e-6
0.435, -8.653e-6
0.434, -8.684e-6
0.433, -8.699e-6
0.432, -8.728e-6
0.431, -8.753e-6
0.430, -8.771e-6
0.429, -8.809e-6
0.428, -8.838e-6
0.427, -8.867e-6
0.426, -8.901e-6
0.425, -8.923e-6
0.424, -8.957e-6
0.423, -8.991e-6
0.422, -9.031e-6
0.421, -9.067e-6
0.420, -9.095e-6
0.419, -9.125e-6
0.418, -9.154e-6
0.417, -9.183e-6
0.416, -9.225e-6
0.415, -9.248e-6
0.414, -9.276e-6
0.413, -9.314e-6
0.412, -9.346e-6
0.411, -9.386e-6
0.410, -9.431e-6
0.409, -9.473e-6
0.408, -9.513e-6
0.407, -9.547e-6
0.406, -9.579e-6
0.405, -9.624e-6
0.404, -9.656e-6
0.403, -9.695e-6
0.402, -9.736e-6
0.401, -9.771e-6
0.400, -9.819e-6
0.399, -9.858e-6
0.398, -9.893e-6
0.397, -9.938e-6
0.396, -9.977e-6
0.395, -1.002e-5
0.394, -1.006e-5
0.393, -1.010e-5
0.392, -1.016e-5
0.391, -1.021e-5
0.390, -1.026e-5
0.389, -1.030e-5
0.388, -1.033e-5
0.387, -1.038e-5
0.386, -1.043e-5
0.385, -1.047e-5
0.384, -1.052e-5
0.383, -1.058e-5
0.382, -1.062e-5
0.381, -1.067e-5
0.380, -1.072e-5
0.379, -1.077e-5
0.378, -1.082e-5
0.377, -1.087e-5
0.376, -1.092e-5
0.375, -1.098e-5
0.374, -1.103e-5
0.373, -1.110e-5
0.372, -1.115e-5
0.371, -1.121e-5
0.370, -1.127e-5
0.369, -1.132e-5
0.368, -1.139e-5
0.367, -1.145e-5
0.366, -1.151e-5
0.365, -1.159e-5
0.364, -1.164e-5
0.363, -1.171e-5
0.362, -1.177e-5
0.361, -1.183e-5
0.360, -1.190e-5
0.359, -1.196e-5
0.358, -1.204e-5
0.357, -1.211e-5
0.356, -1.217e-5
0.355, -1.224e-5
0.354, -1.230e-5
0.353, -1.236e-5
0.352, -1.246e-5
0.351, -1.254e-5
0.350, -1.260e-5
0.349, -1.269e-5
0.348, -1.276e-5
0.347, -1.283e-5
0.346, -1.289e-5
0.345, -1.298e-5
0.344, -1.307e-5
0.343, -1.316e-5
0.342, -1.325e-5
0.341, -1.333e-5
0.340, -1.340e-5
0.339, -1.347e-5
0.338, -1.356e-5
0.337, -1.363e-5
0.336, -1.373e-5
0.335, -1.382e-5
0.334, -1.391e-5
0.333, -1.401e-5
0.332, -1.410e-5
0.331, -1.420e-5
0.330, -1.430e-5
0.329, -1.439e-5
0.328, -1.448e-5
0.327, -1.457e-5
0.326, -1.468e-5
0.325, -1.479e-5
0.324, -1.488e-5
0.323, -1.498e-5
0.322, -1.508e-5
0.321, -1.518e-5
0.320, -1.529e-5
0.319, -1.540e-5
0.318, -1.550e-5
0.317, -1.561e-5
0.316, -1.571e-5
0.315, -1.583e-5
0.314, -1.595e-5
0.313, -1.608e-5
0.312, -1.621e-5
0.311, -1.633e-5
0.310, -1.646e-5
0.309, -1.657e-5
0.308, -1.668e-5
0.307, -1.682e-5
0.306, -1.695e-5
0.305, -1.707e-5
0.304, -1.720e-5
0.303, -1.732e-5
0.302, -1.744e-5
0.301, -1.758e-5
0.300, -1.771e-5
0.299, -1.785e-5
0.298, -1.799e-5
0.297, -1.812e-5
0.296, -1.826e-5
0.295, -1.839e-5
0.294, -1.853e-5
0.293, -1.868e-5
0.292, -1.881e-5
0.291, -1.895e-5
0.290, -1.910e-5
0.289, -1.924e-5
0.288, -1.939e-5
0.287, -1.953e-5
0.286, -1.967e-5
0.285, -1.983e-5
0.284, -1.998e-5
0.283, -2.013e-5
0.282, -2.029e-5
0.281, -2.044e-5
0.280, -2.060e-5
0.279, -2.076e-5
0.278, -2.092e-5
0.277, -2.109e-5
0.276, -2.124e-5
0.275, -2.141e-5
0.274, -2.157e-5
0.273, -2.171e-5
0.272, -2.187e-5
0.271, -2.204e-5
0.270, -2.220e-5
0.269, -2.236e-5
0.268, -2.252e-5
0.267, -2.268e-5
0.266, -2.284e-5
0.265, -2.300e-5
0.264, -2.317e-5
0.263, -2.333e-5
0.262, -2.349e-5
0.261, -2.365e-5
0.260, -2.380e-5
0.259, -2.395e-5
0.258, -2.412e-5
0.257, -2.429e-5
0.256, -2.446e-5
0.255, -2.464e-5
0.254, -2.479e-5
0.253, -2.494e-5
0.252, -2.509e-5
0.251, -2.525e-5
0.250, -2.541e-5
0.249, -2.556e-5
0.248, -2.571e-5
0.247, -2.586e-5
0.246, -2.600e-5
0.245, -2.614e-5
0.244, -2.627e-5
0.243, -2.641e-5
0.242, -2.656e-5
0.241, -2.669e-5
0.240, -2.684e-5
0.239, -2.696e-5
0.238, -2.706e-5
0.237, -2.718e-5
0.236, -2.729e-5
0.235, -2.739e-5
0.234, -2.749e-5
0.233, -2.757e-5
0.232, -2.767e-5
0.231, -2.774e-5
0.230, -2.781e-5
0.229, -2.786e-5
0.228, -2.790e-5
0.227, -2.794e-5
0.226, -2.796e-5
0.225, -2.797e-5
0.224, -2.798e-5
0.223, -2.796e-5
0.222, -2.793e-5
0.221, -2.788e-5
0.220, -2.781e-5
0.219, -2.773e-5
0.218, -2.762e-5
0.217, -2.749e-5
0.216, -2.735e-5
0.215, -2.720e-5
0.214, -2.701e-5
0.213, -2.681e-5
0.212, -2.658e-5
0.211, -2.632e-5
0.210, -2.606e-5
0.209, -2.576e-5
0.208, -2.544e-5
0.207, -2.511e-5
0.206, -2.477e-5
0.205, -2.440e-5
0.204, -2.402e-5
0.203, -2.363e-5
0.202, -2.324e-5
0.201, -2.283e-5
0.200, -2.243e-5
0.199, -2.204e-5
0.198, -2.165e-5
0.197, -2.127e-5
0.196, -2.089e-5
0.195, -2.052e-5
0.194, -2.016e-5
0.193, -1.982e-5
0.192, -1.949e-5
0.191, -1.917e-5
0.190, -1.886e-5
0.189, -1.856e-5
0.188, -1.828e-5
0.187, -1.801e-5
0.186, -1.774e-5
0.185, -1.750e-5
0.184, -1.726e-5
0.183, -1.702e-5
0.182, -1.679e-5
0.181, -1.656e-5
0.180, -1.634e-5
0.179, -1.613e-5
0.178, -1.593e-5
0.177, -1.574e-5
0.176, -1.555e-5
0.175, -1.536e-5
0.174, -1.517e-5
0.173, -1.500e-5
0.172, -1.483e-5
0.171, -1.466e-5
0.170, -1.450e-5
0.169, -1.434e-5
0.168, -1.420e-5
0.167, -1.406e-5
0.166, -1.393e-5
0.165, -1.381e-5
0.164, -1.367e-5
0.163, -1.353e-5
0.162, -1.339e-5
0.161, -1.325e-5
0.160, -1.312e-5
0.159, -1.300e-5
0.158, -1.289e-5
0.157, -1.277e-5
0.156, -1.265e-5
0.155, -1.254e-5
0.154, -1.244e-5
0.153, -1.233e-5
0.152, -1.224e-5
0.151, -1.214e-5
0.150, -1.203e-5
0.149, -1.194e-5
0.148, -1.186e-5
0.147, -1.175e-5
0.146, -1.167e-5
0.145, -1.157e-5
0.144, -1.148e-5
0.143, -1.140e-5
0.142, -1.131e-5
0.141, -1.122e-5
0.140, -1.115e-5
0.139, -1.108e-5
0.138, -1.099e-5
0.137, -1.091e-5
0.136, -1.084e-5
0.135, -1.077e-5
0.134, -1.069e-5
0.133, -1.062e-5
0.132, -1.055e-5
0.131, -1.047e-5
0.130, -1.041e-5
0.129, -1.033e-5
0.128, -1.027e-5
0.127, -1.021e-5
0.126, -1.013e-5
0.125, -1.007e-5
0.124, -1.000e-5
0.123, -9.936e-6
0.122, -9.879e-6
0.121, -9.814e-6
0.120, -9.752e-6
0.119, -9.696e-6
0.118, -9.639e-6
0.117, -9.578e-6
0.116, -9.530e-6
0.115, -9.494e-6
0.114, -9.454e-6
0.113, -9.393e-6
0.112, -9.337e-6
0.111, -9.282e-6
0.110, -9.226e-6
0.109, -9.176e-6
0.108, -9.133e-6
0.107, -9.087e-6
0.106, -9.038e-6
0.105, -8.989e-6
0.104, -8.942e-6
0.103, -8.890e-6
0.102, -8.849e-6
0.101, -8.797e-6
0.100, -8.741e-6
0.099, -8.688e-6
0.098, -8.637e-6
0.097, -8.584e-6
0.096, -8.546e-6
0.095, -8.506e-6
0.094, -8.466e-6
0.093, -8.431e-6
0.092, -8.395e-6
0.091, -8.351e-6
0.090, -8.301e-6
0.089, -8.272e-6
0.088, -8.230e-6
0.087, -8.189e-6
0.086, -8.145e-6
0.085, -8.102e-6
0.084, -8.072e-6
0.083, -8.042e-6
0.082, -8.004e-6
0.081, -7.965e-6
0.080, -7.936e-6
0.079, -7.912e-6
0.078, -7.882e-6
0.077, -7.849e-6
0.076, -7.808e-6
0.075, -7.773e-6
0.074, -7.734e-6
0.073, -7.704e-6
0.072, -7.657e-6
0.071, -7.622e-6
0.070, -7.599e-6
0.069, -7.581e-6
0.068, -7.554e-6
0.067, -7.534e-6
0.066, -7.505e-6
0.065, -7.483e-6
0.064, -7.452e-6
0.063, -7.414e-6
0.062, -7.377e-6
0.061, -7.342e-6
0.060, -7.309e-6
0.059, -7.277e-6
0.058, -7.252e-6
0.057, -7.225e-6
0.056, -7.203e-6
0.055, -7.172e-6
0.054, -7.146e-6
0.053, -7.115e-6
0.052, -7.091e-6
0.051, -7.067e-6
0.050, -7.037e-6
0.049, -7.009e-6
0.048, -6.973e-6
0.047, -6.939e-6
0.046, -6.922e-6
0.045, -6.902e-6
0.044, -6.878e-6
0.043, -6.853e-6
0.042, -6.826e-6
0.041, -6.792e-6
0.040, -6.765e-6
0.039, -6.736e-6
0.038, -6.714e-6
0.037, -6.690e-6
0.036, -6.667e-6
0.035, -6.653e-6
0.034, -6.632e-6
0.033, -6.609e-6
0.032, -6.582e-6
0.031, -6.559e-6
0.030, -6.540e-6
0.029, -6.532e-6
0.028, -6.503e-6
0.027, -6.477e-6
0.026, -6.457e-6
0.025, -6.430e-6
0.024, -6.404e-6
0.023, -6.385e-6
0.022, -6.362e-6
0.021, -6.341e-6
0.020, -6.323e-6
0.019, -6.299e-6
0.018, -6.273e-6
0.017, -6.260e-6
0.016, -6.296e-6
0.015, -6.279e-6
0.014, -6.238e-6
0.013, -6.206e-6
0.012, -6.169e-6
0.011, -6.144e-6
0.010, -6.137e-6
0.009, -6.122e-6
0.008, -6.096e-6
0.007, -6.063e-6
0.006, -6.036e-6
0.005, -6.023e-6
0.004, -6.010e-6
0.003, -5.998e-6
0.002, -5.985e-6
0.001, -5.971e-6
0.000, -5.895e-6
0.001, -5.676e-6
0.002, -5.545e-6
0.003, -5.458e-6
0.004, -5.380e-6
0.005, -5.305e-6
0.006, -5.237e-6
0.007, -5.179e-6
0.008, -5.122e-6
0.009, -5.059e-6
0.010, -5.005e-6
0.011, -4.954e-6
0.012, -4.901e-6
0.013, -4.848e-6
0.014, -4.791e-6
0.015, -4.745e-6
0.016, -4.701e-6
0.017, -4.660e-6
0.018, -4.613e-6
0.019, -4.574e-6
0.020, -4.537e-6
0.021, -4.505e-6
0.022, -4.459e-6
0.023, -4.411e-6
0.024, -4.373e-6
0.025, -4.340e-6
0.026, -4.305e-6
0.027, -4.270e-6
0.028, -4.229e-6
0.029, -4.187e-6
0.030, -4.153e-6
0.031, -4.122e-6
0.032, -4.091e-6
0.033, -4.058e-6
0.034, -4.025e-6
0.035, -3.994e-6
0.036, -3.962e-6
0.037, -3.928e-6
0.038, -3.894e-6
0.039, -3.865e-6
0.040, -3.827e-6
0.041, -3.798e-6
0.042, -3.775e-6
0.043, -3.742e-6
0.044, -3.709e-6
0.045, -3.672e-6
0.046, -3.639e-6
0.047, -3.614e-6
0.048, -3.588e-6
0.049, -3.568e-6
0.050, -3.545e-6
0.051, -3.517e-6
0.052, -3.487e-6
0.053, -3.463e-6
0.054, -3.431e-6
0.055, -3.402e-6
0.056, -3.376e-6
0.057, -3.351e-6
0.058, -3.326e-6
0.059, -3.299e-6
0.060, -3.270e-6
0.061, -3.241e-6
0.062, -3.214e-6
0.063, -3.190e-6
0.064, -3.165e-6
0.065, -3.148e-6
0.066, -3.122e-6
0.067, -3.092e-6
0.068, -3.068e-6
0.069, -3.045e-6
0.070, -3.018e-6
0.071, -2.991e-6
0.072, -2.966e-6
0.073, -2.945e-6
0.074, -2.921e-6
0.075, -2.898e-6
0.076, -2.876e-6
0.077, -2.858e-6
0.078, -2.837e-6
0.079, -2.816e-6
0.080, -2.792e-6
0.081, -2.773e-6
0.082, -2.754e-6
0.083, -2.730e-6
0.084, -2.707e-6
0.085, -2.690e-6
0.086, -2.669e-6
0.087, -2.650e-6
0.088, -2.632e-6
0.089, -2.611e-6
0.090, -2.591e-6
0.091, -2.571e-6
0.092, -2.551e-6
0.093, -2.532e-6
0.094, -2.515e-6
0.095, -2.494e-6
0.096, -2.474e-6
0.097, -2.456e-6
0.098, -2.442e-6
0.099, -2.424e-6
0.100, -2.404e-6
0.101, -2.388e-6
0.102, -2.373e-6
0.103, -2.354e-6
0.104, -2.333e-6
0.105, -2.307e-6
0.106, -2.290e-6
0.107, -2.275e-6
0.108, -2.257e-6
0.109, -2.237e-6
0.110, -2.215e-6
0.111, -2.191e-6
0.112, -2.173e-6
0.113, -2.155e-6
0.114, -2.139e-6
0.115, -2.119e-6
0.116, -2.098e-6
0.117, -2.078e-6
0.118, -2.062e-6
0.119, -2.048e-6
0.120, -2.027e-6
0.121, -2.009e-6
0.122, -1.988e-6
0.123, -1.971e-6
0.124, -1.971e-6
0.125, -1.961e-6
0.126, -1.939e-6
0.127, -1.918e-6
0.128, -1.894e-6
0.129, -1.864e-6
0.130, -1.844e-6
0.131, -1.826e-6
0.132, -1.806e-6
0.133, -1.792e-6
0.134, -1.774e-6
0.135, -1.757e-6
0.136, -1.740e-6
0.137, -1.722e-6
0.138, -1.704e-6
0.139, -1.685e-6
0.140, -1.667e-6
0.141, -1.648e-6
0.142, -1.622e-6
0.143, -1.602e-6
0.144, -1.585e-6
0.145, -1.567e-6
0.146, -1.551e-6
0.147, -1.531e-6
0.148, -1.514e-6
0.149, -1.495e-6
0.150, -1.475e-6
0.151, -1.455e-6
0.152, -1.435e-6
0.153, -1.413e-6
0.154, -1.393e-6
0.155, -1.372e-6
0.156, -1.351e-6
0.157, -1.332e-6
0.158, -1.314e-6
0.159, -1.294e-6
0.160, -1.273e-6
0.161, -1.252e-6
0.162, -1.234e-6
0.163, -1.215e-6
0.164, -1.191e-6
0.165, -1.171e-6
0.166, -1.150e-6
0.167, -1.128e-6
0.168, -1.107e-6
0.169, -1.086e-6
0.170, -1.066e-6
0.171, -1.043e-6
0.172, -1.018e-6
0.173, -9.885e-7
0.174, -9.627e-7
0.175, -9.384e-7
0.176, -9.141e-7
0.177, -8.883e-7
0.178, -8.613e-7
0.179, -8.296e-7
0.180, -7.995e-7
0.181, -7.715e-7
0.182, -7.428e-7
0.183, -7.125e-7
0.184, -6.802e-7
0.185, -6.483e-7
0.186, -6.186e-7
0.187, -5.813e-7
0.188, -5.475e-7
0.189, -5.092e-7
0.190, -4.691e-7
0.191, -4.306e-7
0.192, -3.880e-7
0.193, -3.437e-7
0.194, -3.005e-7
0.195, -2.530e-7
0.196, -2.036e-7
0.197, -1.513e-7
0.198, -9.037e-8
0.199, -2.764e-8
0.200, 3.586e-8
0.201, 1.069e-7
0.202, 1.798e-7
0.203, 2.593e-7
0.204, 3.468e-7
0.205, 4.451e-7
0.206, 5.487e-7
0.207, 6.598e-7
0.208, 7.793e-7
0.209, 9.135e-7
0.210, 1.057e-6
0.211, 1.215e-6
0.212, 1.384e-6
0.213, 1.566e-6
0.214, 1.762e-6
0.215, 1.970e-6
0.216, 2.194e-6
0.217, 2.437e-6
0.218, 2.694e-6
0.219, 2.968e-6
0.220, 3.258e-6
0.221, 3.558e-6
0.222, 3.885e-6
0.223, 4.227e-6
0.224, 4.591e-6
0.225, 4.977e-6
0.226, 5.370e-6
0.227, 5.787e-6
0.228, 6.220e-6
0.229, 6.669e-6
0.230, 7.144e-6
0.231, 7.632e-6
0.232, 8.132e-6
0.233, 8.647e-6
0.234, 9.174e-6
0.235, 9.718e-6
0.236, 1.027e-5
0.237, 1.084e-5
0.238, 1.142e-5
0.239, 1.200e-5
0.240, 1.260e-5
0.241, 1.320e-5
0.242, 1.379e-5
0.243, 1.440e-5
0.244, 1.502e-5
0.245, 1.563e-5
0.246, 1.623e-5
0.247, 1.683e-5
0.248, 1.743e-5
0.249, 1.803e-5
0.250, 1.863e-5
0.251, 1.922e-5
0.252, 1.980e-5
0.253, 2.037e-5
0.254, 2.095e-5
0.255, 2.150e-5
0.256, 2.205e-5
0.257, 2.259e-5
0.258, 2.310e-5
0.259, 2.359e-5
0.260, 2.408e-5
0.261, 2.455e-5
0.262, 2.500e-5
0.263, 2.545e-5
0.264, 2.589e-5
0.265, 2.633e-5
0.266, 2.675e-5
0.267, 2.716e-5
0.268, 2.756e-5
0.269, 2.796e-5
0.270, 2.835e-5
0.271, 2.873e-5
0.272, 2.911e-5
0.273, 2.948e-5
0.274, 2.983e-5
0.275, 3.018e-5
0.276, 3.051e-5
0.277, 3.083e-5
0.278, 3.115e-5
0.279, 3.145e-5
0.280, 3.174e-5
0.281, 3.201e-5
0.282, 3.227e-5
0.283, 3.252e-5
0.284, 3.275e-5
0.285, 3.298e-5
0.286, 3.322e-5
0.287, 3.343e-5
0.288, 3.364e-5
0.289, 3.383e-5
0.290, 3.402e-5
0.291, 3.419e-5
0.292, 3.435e-5
0.293, 3.451e-5
0.294, 3.466e-5
0.295, 3.480e-5
0.296, 3.492e-5
0.297, 3.504e-5
0.298, 3.513e-5
0.299, 3.524e-5
0.300, 3.533e-5
0.301, 3.541e-5
0.302, 3.548e-5
0.303, 3.555e-5
0.304, 3.562e-5
0.305, 3.567e-5
0.306, 3.570e-5
0.307, 3.575e-5
0.308, 3.579e-5
0.309, 3.580e-5
0.310, 3.582e-5
0.311, 3.583e-5
0.312, 3.585e-5
0.313, 3.586e-5
0.314, 3.586e-5
0.315, 3.586e-5
0.316, 3.585e-5
0.317, 3.582e-5
0.318, 3.582e-5
0.319, 3.582e-5
0.320, 3.581e-5
0.321, 3.580e-5
0.322, 3.579e-5
0.323, 3.578e-5
0.324, 3.575e-5
0.325, 3.573e-5
0.326, 3.572e-5
0.327, 3.572e-5
0.328, 3.570e-5
0.329, 3.567e-5
0.330, 3.564e-5
0.331, 3.560e-5
0.332, 3.557e-5
0.333, 3.555e-5
0.334, 3.553e-5
0.335, 3.550e-5
0.336, 3.548e-5
0.337, 3.544e-5
0.338, 3.540e-5
0.339, 3.536e-5
0.340, 3.534e-5
0.341, 3.532e-5
0.342, 3.529e-5
0.343, 3.526e-5
0.344, 3.523e-5
0.345, 3.519e-5
0.346, 3.516e-5
0.347, 3.513e-5
0.348, 3.510e-5
0.349, 3.509e-5
0.350, 3.508e-5
0.351, 3.505e-5
0.352, 3.502e-5
0.353, 3.499e-5
0.354, 3.497e-5
0.355, 3.495e-5
0.356, 3.493e-5
0.357, 3.489e-5
0.358, 3.485e-5
0.359, 3.481e-5
0.360, 3.475e-5
0.361, 3.470e-5
0.362, 3.466e-5
0.363, 3.462e-5
0.364, 3.455e-5
0.365, 3.449e-5
0.366, 3.445e-5
0.367, 3.439e-5
0.368, 3.435e-5
0.369, 3.432e-5
0.370, 3.425e-5
0.371, 3.419e-5
0.372, 3.413e-5
0.373, 3.406e-5
0.374, 3.401e-5
0.375, 3.394e-5
0.376, 3.387e-5
0.377, 3.380e-5
0.378, 3.372e-5
0.379, 3.365e-5
0.380, 3.358e-5
0.381, 3.350e-5
0.382, 3.344e-5
0.383, 3.338e-5
0.384, 3.331e-5
0.385, 3.324e-5
0.386, 3.316e-5
0.387, 3.307e-5
0.388, 3.299e-5
0.389, 3.291e-5
0.390, 3.282e-5
0.391, 3.273e-5
0.392, 3.266e-5
0.393, 3.258e-5
0.394, 3.250e-5
0.395, 3.240e-5
0.396, 3.232e-5
0.397, 3.223e-5
0.398, 3.216e-5
0.399, 3.207e-5
0.400, 3.197e-5
0.401, 3.188e-5
0.402, 3.179e-5
0.403, 3.170e-5
0.404, 3.161e-5
0.405, 3.153e-5
0.406, 3.145e-5
0.407, 3.136e-5
0.408, 3.128e-5
0.409, 3.120e-5
0.410, 3.111e-5
0.411, 3.103e-5
0.412, 3.094e-5
0.413, 3.084e-5
0.414, 3.077e-5
0.415, 3.067e-5
0.416, 3.057e-5
0.417, 3.047e-5
0.418, 3.038e-5
0.419, 3.030e-5
0.420, 3.022e-5
0.421, 3.012e-5
0.422, 3.004e-5
0.423, 2.996e-5
0.424, 2.988e-5
0.425, 2.979e-5
0.426, 2.969e-5
0.427, 2.963e-5
0.428, 2.955e-5
0.429, 2.948e-5
0.430, 2.941e-5
0.431, 2.931e-5
0.432, 2.924e-5
0.433, 2.916e-5
0.434, 2.907e-5
0.435, 2.901e-5
0.436, 2.894e-5
0.437, 2.887e-5
0.438, 2.880e-5
0.439, 2.872e-5
0.440, 2.865e-5
0.441, 2.860e-5
0.442, 2.853e-5
0.443, 2.846e-5
0.444, 2.841e-5
0.445, 2.835e-5
0.446, 2.830e-5
0.447, 2.825e-5
0.448, 2.820e-5
0.449, 2.813e-5
0.450, 2.808e-5
0.451, 2.804e-5
0.452, 2.798e-5
0.453, 2.793e-5
0.454, 2.788e-5
0.455, 2.781e-5
0.456, 2.778e-5
0.457, 2.774e-5
0.458, 2.770e-5
0.459, 2.767e-5
0.460, 2.762e-5
0.461, 2.758e-5
0.462, 2.756e-5
0.463, 2.754e-5
0.464, 2.751e-5
0.465, 2.748e-5
0.466, 2.746e-5
0.467, 2.745e-5
0.468, 2.744e-5
0.469, 2.743e-5
0.470, 2.743e-5
0.471, 2.742e-5
0.472, 2.743e-5
0.473, 2.740e-5
0.474, 2.739e-5
0.475, 2.737e-5
0.476, 2.738e-5
0.477, 2.738e-5
0.478, 2.739e-5
0.479, 2.736e-5
0.480, 2.735e-5
0.481, 2.736e-5
0.482, 2.736e-5
0.483, 2.737e-5
0.484, 2.737e-5
0.485, 2.735e-5
0.486, 2.737e-5
0.487, 2.738e-5
0.488, 2.739e-5
0.489, 2.740e-5
0.490, 2.741e-5
0.491, 2.743e-5
0.492, 2.744e-5
0.493, 2.746e-5
0.494, 2.748e-5
0.495, 2.750e-5
0.496, 2.753e-5
0.497, 2.757e-5
0.498, 2.756e-5
0.499, 2.758e-5
0.500, 2.759e-5
0.501, 2.760e-5
0.502, 2.760e-5
0.503, 2.761e-5
0.504, 2.764e-5
0.505, 2.767e-5
0.506, 2.770e-5
0.507, 2.774e-5
0.508, 2.776e-5
0.509, 2.779e-5
0.510, 2.781e-5
0.511, 2.784e-5
0.512, 2.791e-5
0.513, 2.796e-5
0.514, 2.799e-5
0.515, 2.804e-5
0.516, 2.808e-5
0.517, 2.813e-5
0.518, 2.818e-5
0.519, 2.823e-5
0.520, 2.826e-5
0.521, 2.832e-5
0.522, 2.838e-5
0.523, 2.846e-5
0.524, 2.852e-5
0.525, 2.857e-5
0.526, 2.864e-5
0.527, 2.869e-5
0.528, 2.877e-5
0.529, 2.885e-5
0.530, 2.891e-5
0.531, 2.899e-5
0.532, 2.906e-5
0.533, 2.914e-5
0.534, 2.922e-5
0.535, 2.929e-5
0.536, 2.937e-5
0.537, 2.948e-5
0.538, 2.958e-5
0.539, 2.967e-5
0.540, 2.976e-5
0.541, 2.985e-5
0.542, 2.995e-5
0.543, 3.004e-5
0.544, 3.015e-5
0.545, 3.025e-5
0.546, 3.035e-5
0.547, 3.047e-5
0.548, 3.058e-5
0.549, 3.071e-5
0.550, 3.084e-5
0.551, 3.097e-5
0.552, 3.110e-5
0.553, 3.123e-5
0.554, 3.135e-5
0.555, 3.147e-5
0.556, 3.158e-5
0.557, 3.172e-5
0.558, 3.184e-5
0.559, 3.195e-5
0.560, 3.207e-5
0.561, 3.220e-5
0.562, 3.231e-5
0.563, 3.244e-5
0.564, 3.258e-5
0.565, 3.270e-5
0.566, 3.285e-5
0.567, 3.298e-5
0.568, 3.312e-5
0.569, 3.326e-5
0.570, 3.341e-5
0.571, 3.357e-5
0.572, 3.370e-5
0.573, 3.384e-5
0.574, 3.399e-5
0.575, 3.413e-5
0.576, 3.431e-5
0.577, 3.449e-5
0.578, 3.465e-5
0.579, 3.482e-5
0.580, 3.499e-5
0.581, 3.516e-5
0.582, 3.535e-5
0.583, 3.553e-5
0.584, 3.571e-5
0.585, 3.587e-5
0.586, 3.602e-5
0.587, 3.618e-5
0.588, 3.633e-5
0.589, 3.650e-5
0.590, 3.667e-5
0.591, 3.683e-5
0.592, 3.701e-5
0.593, 3.720e-5
0.594, 3.738e-5
0.595, 3.758e-5
0.596, 3.776e-5
0.597, 3.793e-5
0.598, 3.813e-5
0.599, 3.833e-5
0.600, 3.853e-5
0.601, 3.873e-5
0.602, 3.893e-5
0.603, 3.912e-5
0.604, 3.930e-5
0.605, 3.951e-5
0.606, 3.971e-5
0.607, 3.991e-5
0.608, 4.014e-5
0.609, 4.036e-5
0.610, 4.056e-5
0.611, 4.078e-5
0.612, 4.100e-5
0.613, 4.123e-5
0.614, 4.149e-5
0.615, 4.174e-5
0.616, 4.197e-5
0.617, 4.219e-5
0.618, 4.240e-5
0.619, 4.263e-5
0.620, 4.286e-5
0.621, 4.308e-5
0.622, 4.334e-5
0.623, 4.359e-5
0.624, 4.383e-5
0.625, 4.411e-5
0.626, 4.438e-5
0.627, 4.467e-5
0.628, 4.493e-5
0.629, 4.522e-5
0.630, 4.551e-5
0.631, 4.578e-5
0.632, 4.606e-5
0.633, 4.634e-5
0.634, 4.663e-5
0.635, 4.692e-5
0.636, 4.719e-5
0.637, 4.748e-5
0.638, 4.779e-5
0.639, 4.810e-5
0.640, 4.844e-5
0.641, 4.875e-5
0.642, 4.907e-5
0.643, 4.943e-5
0.644, 4.979e-5
0.645, 5.013e-5
0.646, 5.049e-5
0.647, 5.085e-5
0.648, 5.120e-5
0.649, 5.158e-5
0.650, 5.197e-5
0.651, 5.240e-5
0.652, 5.279e-5
0.653, 5.322e-5
0.654, 5.364e-5
0.655, 5.406e-5
0.656, 5.450e-5
0.657, 5.494e-5
0.658, 5.539e-5
0.659, 5.586e-5
0.660, 5.633e-5
0.661, 5.681e-5
0.662, 5.729e-5
0.663, 5.780e-5
0.664, 5.834e-5
0.665, 5.887e-5
0.666, 5.941e-5
0.667, 5.997e-5
0.668, 6.051e-5
0.669, 6.108e-5
0.670, 6.167e-5
0.671, 6.226e-5
0.672, 6.287e-5
0.673, 6.346e-5
0.674, 6.405e-5
0.675, 6.470e-5
0.676, 6.536e-5
0.677, 6.603e-5
0.678, 6.673e-5
0.679, 6.744e-5
0.680, 6.814e-5
0.681, 6.886e-5
0.682, 6.960e-5
0.683, 7.036e-5
0.684, 7.113e-5
0.685, 7.190e-5
0.686, 7.269e-5
0.687, 7.351e-5
0.688, 7.437e-5
0.689, 7.524e-5
0.690, 7.609e-5
0.691, 7.700e-5
0.692, 7.792e-5
0.693, 7.885e-5
0.694, 7.980e-5
0.695, 8.077e-5
0.696, 8.174e-5
0.697, 8.271e-5
0.698, 8.370e-5
0.699, 8.473e-5
0.700, 8.578e-5
0.701, 8.683e-5
0.702, 8.792e-5
0.703, 8.901e-5
0.704, 9.014e-5
0.705, 9.130e-5
0.706, 9.244e-5
0.707, 9.363e-5
0.708, 9.484e-5
0.709, 9.606e-5
0.710, 9.728e-5
0.711, 9.850e-5
0.712, 9.977e-5
0.713, 1.010e-4
0.714, 1.024e-4
0.715, 1.037e-4
0.716, 1.050e-4
0.717, 1.064e-4
0.718, 1.078e-4
0.719, 1.092e-4
0.720, 1.106e-4
0.721, 1.119e-4
0.722, 1.134e-4
0.723, 1.148e-4
0.724, 1.163e-4
0.725, 1.178e-4
0.726, 1.194e-4
0.727, 1.209e-4
0.728, 1.225e-4
0.729, 1.241e-4
0.730, 1.256e-4
0.731, 1.272e-4
0.732, 1.288e-4
0.733, 1.304e-4
0.734, 1.321e-4
0.735, 1.338e-4
0.736, 1.354e-4
0.737, 1.371e-4
0.738, 1.389e-4
0.739, 1.407e-4
0.740, 1.424e-4
0.741, 1.441e-4
0.742, 1.459e-4
0.743, 1.476e-4
0.744, 1.495e-4
0.745, 1.513e-4
0.746, 1.531e-4
0.747, 1.549e-4
0.748, 1.568e-4
0.749, 1.586e-4
0.750, 1.604e-4
0.751, 1.623e-4
0.752, 1.641e-4
0.753, 1.660e-4
0.754, 1.679e-4
0.755, 1.698e-4
0.756, 1.718e-4
0.757, 1.737e-4
0.758, 1.756e-4
0.759, 1.776e-4
0.760, 1.796e-4
0.761, 1.816e-4
0.762, 1.835e-4
0.763, 1.855e-4
0.764, 1.876e-4
0.765, 1.896e-4
0.766, 1.916e-4
0.767, 1.936e-4
0.768, 1.957e-4
0.769, 1.977e-4
0.770, 1.997e-4
0.771, 2.018e-4
0.772, 2.039e-4
0.773, 2.060e-4
0.774, 2.080e-4
0.775, 2.101e-4
0.776, 2.121e-4
0.777, 2.143e-4
0.778, 2.164e-4
0.779, 2.185e-4
0.780, 2.207e-4
0.781, 2.228e-4
0.782, 2.250e-4
0.783, 2.271e-4
0.784, 2.293e-4
0.785, 2.315e-4
0.786, 2.338e-4
0.787, 2.359e-4
0.788, 2.381e-4
0.789, 2.402e-4
0.790, 2.423e-4
0.791, 2.445e-4
0.792, 2.466e-4
0.793, 2.487e-4
0.794, 2.508e-4
0.795, 2.530e-4
0.796, 2.551e-4
0.797, 2.573e-4
0.798, 2.595e-4
0.799, 2.615e-4
0.800, 2.630e-4
0.799, 2.596e-4
0.798, 2.539e-4
0.797, 2.481e-4
0.796, 2.428e-4
0.795, 2.378e-4
0.794, 2.328e-4
0.793, 2.281e-4
0.792, 2.234e-4
0.791, 2.188e-4
0.790, 2.144e-4
0.789, 2.100e-4
0.788, 2.058e-4
0.787, 2.016e-4
0.786, 1.976e-4
0.785, 1.937e-4
0.784, 1.899e-4
0.783, 1.860e-4
0.782, 1.823e-4
0.781, 1.787e-4
0.780, 1.751e-4
0.779, 1.717e-4
0.778, 1.682e-4
0.777, 1.648e-4
0.776, 1.616e-4
0.775, 1.584e-4
0.774, 1.552e-4
0.773, 1.521e-4
0.772, 1.489e-4
0.771, 1.459e-4
0.770, 1.429e-4
0.769, 1.400e-4
0.768, 1.373e-4
0.767, 1.345e-4
0.766, 1.318e-4
0.765, 1.291e-4
0.764, 1.264e-4
0.763, 1.239e-4
0.762, 1.214e-4
0.761, 1.189e-4
0.760, 1.164e-4
0.759, 1.141e-4
0.758, 1.117e-4
0.757, 1.094e-4
0.756, 1.071e-4
0.755, 1.048e-4
0.754, 1.026e-4
0.753, 1.004e-4
0.752, 9.832e-5
0.751, 9.626e-5
0.750, 9.423e-5
0.749, 9.217e-5
0.748, 9.022e-5
0.747, 8.824e-5
0.746, 8.630e-5
0.745, 8.445e-5
0.744, 8.261e-5
0.743, 8.084e-5
0.742, 7.908e-5
0.741, 7.730e-5
0.740, 7.561e-5
0.739, 7.393e-5
0.738, 7.225e-5
0.737, 7.062e-5
0.736, 6.901e-5
0.735, 6.746e-5
0.734, 6.591e-5
0.733, 6.437e-5
0.732, 6.289e-5
0.731, 6.143e-5
0.730, 5.999e-5
0.729, 5.858e-5
0.728, 5.720e-5
0.727, 5.584e-5
0.726, 5.452e-5
0.725, 5.319e-5
0.724, 5.192e-5
0.723, 5.065e-5
0.722, 4.941e-5
0.721, 4.822e-5
0.720, 4.704e-5
0.719, 4.587e-5
0.718, 4.474e-5
0.717, 4.361e-5
0.716, 4.250e-5
0.715, 4.142e-5
0.714, 4.037e-5
0.713, 3.935e-5
0.712, 3.833e-5
0.711, 3.733e-5
0.710, 3.634e-5
0.709, 3.536e-5
0.708, 3.442e-5
0.707, 3.348e-5
0.706, 3.256e-5
0.705, 3.168e-5
0.704, 3.081e-5
0.703, 2.995e-5
0.702, 2.911e-5
0.701, 2.828e-5
0.700, 2.747e-5
0.699, 2.669e-5
0.698, 2.592e-5
0.697, 2.516e-5
0.696, 2.440e-5
0.695, 2.369e-5
0.694, 2.297e-5
0.693, 2.226e-5
0.692, 2.156e-5
0.691, 2.088e-5
0.690, 2.022e-5
0.689, 1.957e-5
0.688, 1.893e-5
0.687, 1.832e-5
0.686, 1.772e-5
0.685, 1.711e-5
0.684, 1.652e-5
0.683, 1.596e-5
0.682, 1.539e-5
0.681, 1.482e-5
0.680, 1.427e-5
0.679, 1.374e-5
0.678, 1.323e-5
0.677, 1.272e-5
0.676, 1.223e-5
0.675, 1.173e-5
0.674, 1.124e-5
0.673, 1.077e-5
0.672, 1.030e-5
0.671, 9.855e-6
0.670, 9.416e-6
0.669, 8.976e-6
0.668, 8.557e-6
0.667, 8.138e-6
0.666, 7.729e-6
0.665, 7.325e-6
0.664, 6.922e-6
0.663, 6.541e-6
0.662, 6.166e-6
0.661, 5.795e-6
0.660, 5.444e-6
0.659, 5.088e-6
0.658, 4.735e-6
0.657, 4.407e-6
0.656, 4.068e-6
0.655, 3.740e-6
0.654, 3.431e-6
0.653, 3.106e-6
0.652, 2.788e-6
0.651, 2.487e-6
0.650, 2.182e-6
0.649, 1.894e-6
0.648, 1.605e-6
0.647, 1.331e-6
0.646, 1.056e-6
0.645, 7.763e-7
0.644, 5.149e-7
0.643, 2.526e-7
0.642, -4.129e-10
0.641, -2.479e-7
0.640, -5.028e-7
0.639, -7.438e-7
0.638, -9.812e-7
0.637, -1.218e-6
0.636, -1.444e-6
0.635, -1.670e-6
0.634, -1.899e-6
0.633, -2.112e-6
0.632, -2.323e-6
0.631, -2.528e-6
0.630, -2.725e-6
0.629, -2.924e-6
0.628, -3.121e-6
0.627, -3.327e-6
0.626, -3.519e-6
0.625, -3.699e-6
0.624, -3.889e-6
0.623, -4.069e-6
0.622, -4.247e-6
0.621, -4.430e-6
0.620, -4.598e-6
0.619, -4.764e-6
0.618, -4.930e-6
0.617, -5.085e-6
0.616, -5.246e-6
0.615, -5.406e-6
0.614, -5.573e-6
0.613, -5.721e-6
0.612, -5.856e-6
0.611, -6.003e-6
0.610, -6.145e-6
0.609, -6.277e-6
0.608, -6.418e-6
0.607, -6.544e-6
0.606, -6.662e-6
0.605, -6.796e-6
0.604, -6.919e-6
0.603, -7.046e-6
0.602, -7.173e-6
0.601, -7.289e-6
0.600, -7.406e-6
0.599, -7.508e-6
0.598, -7.620e-6
0.597, -7.737e-6
0.596, -7.847e-6
0.595, -7.957e-6
0.594, -8.068e-6
0.593, -8.166e-6
0.592, -8.270e-6
0.591, -8.362e-6
0.590, -8.444e-6
0.589, -8.539e-6
0.588, -8.626e-6
0.587, -8.712e-6
0.586, -8.803e-6
0.585, -8.883e-6
0.584, -8.970e-6
0.583, -9.048e-6
0.582, -9.130e-6
0.581, -9.208e-6
0.580, -9.275e-6
0.579, -9.348e-6
0.578, -9.419e-6
0.577, -9.483e-6
0.576, -9.557e-6
0.575, -9.625e-6
0.574, -9.681e-6
0.573, -9.753e-6
0.572, -9.812e-6
0.571, -9.869e-6
0.570, -9.931e-6
0.569, -9.993e-6
0.568, -1.005e-5
0.567, -1.010e-5
0.566, -1.014e-5
0.565, -1.019e-5
0.564, -1.022e-5
0.563, -1.028e-5
0.562, -1.032e-5
0.561, -1.034e-5
0.560, -1.038e-5
0.559, -1.042e-5
0.558, -1.045e-5
0.557, -1.050e-5
0.556, -1.054e-5
0.555, -1.057e-5
0.554, -1.060e-5
0.553, -1.063e-5
0.552, -1.066e-5
0.551, -1.070e-5
0.550, -1.072e-5
0.549, -1.075e-5
0.548, -1.077e-5
0.547, -1.079e-5
0.546, -1.081e-5
0.545, -1.083e-5
0.544, -1.085e-5
0.543, -1.088e-5
0.542, -1.089e-5
0.541, -1.091e-5
0.540, -1.091e-5
0.539, -1.092e-5
0.538, -1.093e-5
0.537, -1.095e-5
0.536, -1.096e-5
0.535, -1.097e-5
0.534, -1.097e-5
0.533, -1.098e-5
0.532, -1.098e-5
0.531, -1.100e-5
0.530, -1.100e-5
0.529, -1.100e-5
0.528, -1.100e-5
0.527, -1.100e-5
0.526, -1.100e-5
0.525, -1.100e-5
0.524, -1.101e-5
0.523, -1.102e-5
0.522, -1.102e-5
0.521, -1.102e-5
0.520, -1.101e-5
0.519, -1.101e-5
0.518, -1.100e-5
0.517, -1.100e-5
0.516, -1.100e-5
0.515, -1.100e-5
0.514, -1.100e-5
0.513, -1.100e-5
0.512, -1.100e-5
0.511, -1.100e-5
0.510, -1.098e-5
0.509, -1.098e-5
0.508, -1.097e-5
0.507, -1.096e-5
0.506, -1.094e-5
0.505, -1.093e-5
0.504, -1.092e-5
0.503, -1.091e-5
0.502, -1.090e-5
0.501, -1.090e-5
0.500, -1.090e-5
0.499, -1.090e-5
0.498, -1.089e-5
0.497, -1.087e-5
0.496, -1.086e-5
0.495, -1.085e-5
0.494, -1.084e-5
0.493, -1.083e-5
0.492, -1.082e-5
0.491, -1.081e-5
0.490, -1.079e-5
0.489, -1.077e-5
0.488, -1.076e-5
0.487, -1.075e-5
0.486, -1.074e-5
0.485, -1.073e-5
0.484, -1.072e-5
0.483, -1.070e-5
0.482, -1.069e-5
0.481, -1.066e-5
0.480, -1.064e-5
0.479, -1.063e-5
0.478, -1.061e-5
0.477, -1.060e-5
0.476, -1.060e-5
0.475, -1.059e-5
0.474, -1.057e-5
0.473, -1.055e-5
0.472, -1.055e-5
0.471, -1.054e-5
0.470, -1.051e-5
0.469, -1.050e-5
0.468, -1.049e-5
0.467, -1.048e-5
0.466, -1.047e-5
0.465, -1.045e-5
0.464, -1.044e-5
0.463, -1.043e-5
0.462, -1.043e-5
0.461, -1.043e-5
0.460, -1.041e-5
0.459, -1.039e-5
0.458, -1.038e-5
0.457, -1.037e-5
0.456, -1.037e-5
0.455, -1.035e-5
0.454, -1.034e-5
0.453, -1.033e-5
0.452, -1.032e-5
0.451, -1.032e-5
0.450, -1.031e-5
0.449, -1.031e-5
0.448, -1.032e-5
0.447, -1.031e-5
0.446, -1.030e-5
0.445, -1.031e-5
0.444, -1.031e-5
0.443, -1.032e-5
0.442, -1.032e-5
0.441, -1.031e-5
0.440, -1.031e-5
0.439, -1.031e-5
0.438, -1.031e-5
0.437, -1.031e-5
0.436, -1.030e-5
0.435, -1.030e-5
0.434, -1.029e-5
0.433, -1.028e-5
0.432, -1.027e-5
0.431, -1.028e-5
0.430, -1.027e-5
0.429, -1.028e-5
0.428, -1.027e-5
0.427, -1.028e-5
0.426, -1.028e-5
0.425, -1.027e-5
0.424, -1.027e-5
0.423, -1.028e-5
0.422, -1.028e-5
0.421, -1.027e-5
0.420, -1.027e-5
0.419, -1.027e-5
0.418, -1.028e-5
0.417, -1.027e-5
0.416, -1.029e-5
0.415, -1.029e-5
0.414, -1.028e-5
0.413, -1.028e-5
0.412, -1.027e-5
0.411, -1.027e-5
0.410, -1.029e-5
0.409, -1.029e-5
0.408, -1.029e-5
0.407, -1.030e-5
0.406, -1.032e-5
0.405, -1.033e-5
0.404, -1.032e-5
0.403, -1.033e-5
0.402, -1.034e-5
0.401, -1.035e-5
0.400, -1.036e-5
0.399, -1.037e-5
0.398, -1.037e-5
0.397, -1.038e-5
0.396, -1.040e-5
0.395, -1.041e-5
0.394, -1.043e-5
0.393, -1.045e-5
0.392, -1.046e-5
0.391, -1.047e-5
0.390, -1.047e-5
0.389, -1.048e-5
0.388, -1.049e-5
0.387, -1.052e-5
0.386, -1.054e-5
0.385, -1.056e-5
0.384, -1.058e-5
0.383, -1.060e-5
0.382, -1.060e-5
0.381, -1.061e-5
0.380, -1.062e-5
0.379, -1.065e-5
0.378, -1.067e-5
0.377, -1.069e-5
0.376, -1.072e-5
0.375, -1.073e-5
0.374, -1.076e-5
0.373, -1.078e-5
0.372, -1.082e-5
0.371, -1.085e-5
0.370, -1.087e-5
0.369, -1.089e-5
0.368, -1.091e-5
0.367, -1.093e-5
0.366, -1.096e-5
0.365, -1.099e-5
0.364, -1.101e-5
0.363, -1.103e-5
0.362, -1.106e-5
0.361, -1.108e-5
0.360, -1.112e-5
0.359, -1.116e-5
0.358, -1.118e-5
0.357, -1.120e-5
0.356, -1.121e-5
0.355, -1.123e-5
0.354, -1.126e-5
0.353, -1.127e-5
0.352, -1.130e-5
0.351, -1.133e-5
0.350, -1.135e-5
0.349, -1.139e-5
0.348, -1.142e-5
0.347, -1.146e-5
0.346, -1.150e-5
0.345, -1.153e-5
0.344, -1.157e-5
0.343, -1.161e-5
0.342, -1.163e-5
0.341, -1.167e-5
0.340, -1.169e-5
0.339, -1.173e-5
0.338, -1.177e-5
0.337, -1.181e-5
0.336, -1.185e-5
0.335, -1.189e-5
0.334, -1.193e-5
0.333, -1.198e-5
0.332, -1.202e-5
0.331, -1.206e-5
0.330, -1.210e-5
0.329, -1.214e-5
0.328, -1.218e-5
0.327, -1.223e-5
0.326, -1.226e-5
0.325, -1.230e-5
0.324, -1.234e-5
0.323, -1.239e-5
0.322, -1.244e-5
0.321, -1.247e-5
0.320, -1.252e-5
0.319, -1.256e-5
0.318, -1.260e-5
0.317, -1.264e-5
0.316, -1.269e-5
0.315, -1.275e-5
0.314, -1.280e-5
0.313, -1.284e-5
0.312, -1.288e-5
0.311, -1.293e-5
0.310, -1.299e-5
0.309, -1.305e-5
0.308, -1.309e-5
0.307, -1.316e-5
0.306, -1.322e-5
0.305, -1.328e-5
0.304, -1.333e-5
0.303, -1.338e-5
0.302, -1.344e-5
0.301, -1.349e-5
0.300, -1.356e-5
0.299, -1.362e-5
0.298, -1.367e-5
0.297, -1.372e-5
0.296, -1.377e-5
0.295, -1.382e-5
0.294, -1.387e-5
0.293, -1.393e-5
0.292, -1.400e-5
0.291, -1.406e-5
0.290, -1.413e-5
0.289, -1.418e-5
0.288, -1.423e-5
0.287, -1.430e-5
0.286, -1.436e-5
0.285, -1.442e-5
0.284, -1.446e-5
0.283, -1.452e-5
0.282, -1.458e-5
0.281, -1.465e-5
0.280, -1.472e-5
0.279, -1.478e-5
0.278, -1.482e-5
0.277, -1.488e-5
0.276, -1.494e-5
0.275, -1.501e-5
0.274, -1.506e-5
0.273, -1.511e-5
0.272, -1.516e-5
0.271, -1.521e-5
0.270, -1.526e-5
0.269, -1.534e-5
0.268, -1.541e-5
0.267, -1.546e-5
0.266, -1.551e-5
0.265, -1.556e-5
0.264, -1.563e-5
0.263, -1.570e-5
0.262, -1.575e-5
0.261, -1.581e-5
0.260, -1.585e-5
0.259, -1.592e-5
0.258, -1.597e-5
0.257, -1.603e-5
0.256, -1.609e-5
0.255, -1.614e-5
0.254, -1.619e-5
0.253, -1.624e-5
0.252, -1.629e-5
0.251, -1.633e-5
0.250, -1.639e-5
0.249, -1.643e-5
0.248, -1.648e-5
0.247, -1.652e-5
0.246, -1.656e-5
0.245, -1.662e-5
0.244, -1.666e-5
0.243, -1.671e-5
0.242, -1.674e-5
0.241, -1.676e-5
0.240, -1.677e-5
0.239, -1.680e-5
0.238, -1.683e-5
0.237, -1.687e-5
0.236, -1.690e-5
0.235, -1.691e-5
0.234, -1.692e-5
0.233, -1.694e-5
0.232, -1.695e-5
0.231, -1.694e-5
0.230, -1.695e-5
0.229, -1.695e-5
0.228, -1.696e-5
0.227, -1.695e-5
0.226, -1.695e-5
0.225, -1.693e-5
0.224, -1.691e-5
0.223, -1.688e-5
0.222, -1.686e-5
0.221, -1.681e-5
0.220, -1.677e-5
0.219, -1.673e-5
0.218, -1.670e-5
0.217, -1.664e-5
0.216, -1.657e-5
0.215, -1.651e-5
0.214, -1.644e-5
0.213, -1.638e-5
0.212, -1.630e-5
0.211, -1.623e-5
0.210, -1.612e-5
0.209, -1.602e-5
0.208, -1.593e-5
0.207, -1.583e-5
0.206, -1.570e-5
0.205, -1.559e-5
0.204, -1.548e-5
0.203, -1.536e-5
0.202, -1.523e-5
0.201, -1.511e-5
0.200, -1.497e-5
0.199, -1.483e-5
0.198, -1.471e-5
0.197, -1.458e-5
0.196, -1.444e-5
0.195, -1.432e-5
0.194, -1.418e-5
0.193, -1.405e-5
0.192, -1.392e-5
0.191, -1.379e-5
0.190, -1.367e-5
0.189, -1.354e-5
0.188, -1.341e-5
0.187, -1.329e-5
0.186, -1.317e-5
0.185, -1.304e-5
0.184, -1.293e-5
0.183, -1.282e-5
0.182, -1.272e-5
0.181, -1.262e-5
0.180, -1.251e-5
0.179, -1.242e-5
0.178, -1.233e-5
0.177, -1.225e-5
0.176, -1.217e-5
0.175, -1.208e-5
0.174, -1.199e-5
0.173, -1.191e-5
0.172, -1.183e-5
0.171, -1.175e-5
0.170, -1.167e-5
0.169, -1.159e-5
0.168, -1.152e-5
0.167, -1.144e-5
0.166, -1.137e-5
0.165, -1.129e-5
0.164, -1.121e-5
0.163, -1.113e-5
0.162, -1.107e-5
0.161, -1.100e-5
0.160, -1.093e-5
0.159, -1.087e-5
0.158, -1.080e-5
0.157, -1.072e-5
0.156, -1.066e-5
0.155, -1.059e-5
0.154, -1.053e-5
0.153, -1.048e-5
0.152, -1.044e-5
0.151, -1.038e-5
0.150, -1.032e-5
0.149, -1.026e-5
0.148, -1.021e-5
0.147, -1.015e-5
0.146, -1.009e-5
0.145, -1.004e-5
0.144, -9.985e-6
0.143, -9.928e-6
0.142, -9.873e-6
0.141, -9.820e-6
0.140, -9.782e-6
0.139, -9.729e-6
0.138, -9.676e-6
0.137, -9.637e-6
0.136, -9.592e-6
0.135, -9.537e-6
0.134, -9.489e-6
0.133, -9.440e-6
0.132, -9.380e-6
0.131, -9.340e-6
0.130, -9.307e-6
0.129, -9.244e-6
0.128, -9.196e-6
0.127, -9.152e-6
0.126, -9.128e-6
0.125, -9.105e-6
0.124, -9.075e-6
0.123, -9.035e-6
0.122, -8.993e-6
0.121, -8.943e-6
0.120, -8.916e-6
0.119, -8.883e-6
0.118, -8.842e-6
0.117, -8.818e-6
0.116, -8.785e-6
0.115, -8.752e-6
0.114, -8.709e-6
0.113, -8.658e-6
0.112, -8.624e-6
0.111, -8.597e-6
0.110, -8.561e-6
0.109, -8.522e-6
0.108, -8.480e-6
0.107, -8.440e-6
0.106, -8.408e-6
0.105, -8.376e-6
0.104, -8.337e-6
0.103, -8.311e-6
0.102, -8.284e-6
0.101, -8.243e-6
0.100, -8.199e-6
0.099, -8.173e-6
0.098, -8.148e-6
0.097, -8.123e-6
0.096, -8.088e-6
0.095, -8.052e-6
0.094, -8.012e-6
0.093, -7.995e-6
0.092, -7.968e-6
0.091, -7.930e-6
0.090, -7.913e-6
0.089, -7.884e-6
0.088, -7.851e-6
0.087, -7.825e-6
0.086, -7.790e-6
0.085, -7.762e-6
0.084, -7.735e-6
0.083, -7.704e-6
0.082, -7.676e-6
0.081, -7.657e-6
0.080, -7.631e-6
0.079, -7.613e-6
0.078, -7.580e-6
0.077, -7.549e-6
0.076, -7.527e-6
0.075, -7.493e-6
0.074, -7.464e-6
0.073, -7.444e-6
0.072, -7.416e-6
0.071, -7.396e-6
0.070, -7.381e-6
0.069, -7.367e-6
0.068, -7.340e-6
0.067, -7.317e-6
0.066, -7.299e-6
0.065, -7.274e-6
0.064, -7.254e-6
0.063, -7.228e-6
0.062, -7.202e-6
0.061, -7.176e-6
0.060, -7.148e-6
0.059, -7.108e-6
0.058, -7.092e-6
0.057, -7.074e-6
0.056, -7.047e-6
0.055, -7.028e-6
0.054, -7.015e-6
0.053, -6.994e-6
0.052, -6.973e-6
0.051, -6.958e-6
0.050, -6.927e-6
0.049, -6.894e-6
0.048, -6.880e-6
0.047, -6.864e-6
0.046, -6.839e-6
0.045, -6.817e-6
0.044, -6.806e-6
0.043, -6.798e-6
0.042, -6.774e-6
0.041, -6.756e-6
0.040, -6.732e-6
0.039, -6.714e-6
0.038, -6.697e-6
0.037, -6.675e-6
0.036, -6.655e-6
0.035, -6.630e-6
0.034, -6.616e-6
0.033, -6.605e-6
0.032, -6.593e-6
0.031, -6.569e-6
0.030, -6.543e-6
0.029, -6.532e-6
0.028, -6.514e-6
0.027, -6.501e-6
0.026, -6.488e-6
0.025, -6.473e-6
0.024, -6.451e-6
0.023, -6.435e-6
0.022, -6.414e-6
0.021, -6.406e-6
0.020, -6.399e-6
0.019, -6.394e-6
0.018, -6.382e-6
0.017, -6.361e-6
0.016, -6.347e-6
0.015, -6.355e-6
0.014, -6.327e-6
0.013, -6.313e-6
0.012, -6.306e-6
0.011, -6.275e-6
0.010, -6.262e-6
0.009, -6.248e-6
0.008, -6.239e-6
0.007, -6.243e-6
0.006, -6.245e-6
0.005, -6.226e-6
0.004, -6.199e-6
0.003, -6.192e-6
0.002, -6.168e-6
0.001, -6.131e-6
0.000, -6.060e-6
0.001, -5.832e-6
0.002, -5.695e-6
0.003, -5.595e-6
0.004, -5.508e-6
0.005, -5.437e-6
0.006, -5.365e-6
0.007, -5.301e-6
0.008, -5.252e-6
0.009, -5.192e-6
0.010, -5.137e-6
0.011, -5.091e-6
0.012, -5.029e-6
0.013, -4.963e-6
0.014, -4.899e-6
0.015, -4.840e-6
0.016, -4.799e-6
0.017, -4.756e-6
0.018, -4.708e-6
0.019, -4.661e-6
0.020, -4.615e-6
0.021, -4.576e-6
0.022, -4.536e-6
0.023, -4.504e-6
0.024, -4.458e-6
0.025, -4.412e-6
0.026, -4.370e-6
0.027, -4.334e-6
0.028, -4.297e-6
0.029, -4.256e-6
0.030, -4.216e-6
0.031, -4.176e-6
0.032, -4.145e-6
0.033, -4.110e-6
0.034, -4.073e-6
0.035, -4.040e-6
0.036, -4.002e-6
0.037, -3.966e-6
0.038, -3.936e-6
0.039, -3.906e-6
0.040, -3.872e-6
0.041, -3.835e-6
0.042, -3.803e-6
0.043, -3.777e-6
0.044, -3.751e-6
0.045, -3.723e-6
0.046, -3.686e-6
0.047, -3.650e-6
0.048, -3.626e-6
0.049, -3.594e-6
0.050, -3.562e-6
0.051, -3.535e-6
0.052, -3.507e-6
0.053, -3.480e-6
0.054, -3.455e-6
0.055, -3.434e-6
0.056, -3.407e-6
0.057, -3.377e-6
0.058, -3.346e-6
0.059, -3.316e-6
0.060, -3.292e-6
0.061, -3.269e-6
0.062, -3.238e-6
0.063, -3.217e-6
0.064, -3.192e-6
0.065, -3.163e-6
0.066, -3.139e-6
0.067, -3.115e-6
0.068, -3.089e-6
0.069, -3.071e-6
0.070, -3.051e-6
0.071, -3.021e-6
0.072, -2.999e-6
0.073, -2.976e-6
0.074, -2.958e-6
0.075, -2.933e-6
0.076, -2.907e-6
0.077, -2.883e-6
0.078, -2.865e-6
0.079, -2.840e-6
0.080, -2.815e-6
0.081, -2.791e-6
0.082, -2.769e-6
0.083, -2.746e-6
0.084, -2.726e-6
0.085, -2.710e-6
0.086, -2.690e-6
0.087, -2.673e-6
0.088, -2.652e-6
0.089, -2.630e-6
0.090, -2.605e-6
0.091, -2.582e-6
0.092, -2.570e-6
0.093, -2.551e-6
0.094, -2.529e-6
0.095, -2.506e-6
0.096, -2.480e-6
0.097, -2.466e-6
0.098, -2.448e-6
0.099, -2.430e-6
0.100, -2.413e-6
0.101, -2.393e-6
0.102, -2.371e-6
0.103, -2.353e-6
0.104, -2.337e-6
0.105, -2.318e-6
0.106, -2.295e-6
0.107, -2.275e-6
0.108, -2.257e-6
0.109, -2.245e-6
0.110, -2.228e-6
0.111, -2.204e-6
0.112, -2.183e-6
0.113, -2.171e-6
0.114, -2.156e-6
0.115, -2.136e-6
0.116, -2.116e-6
0.117, -2.099e-6
0.118, -2.078e-6
0.119, -2.062e-6
0.120, -2.047e-6
0.121, -2.028e-6
0.122, -2.013e-6
0.123, -1.991e-6
0.124, -1.971e-6
0.125, -1.954e-6
0.126, -1.938e-6
0.127, -1.923e-6
0.128, -1.907e-6
0.129, -1.884e-6
0.130, -1.863e-6
0.131, -1.843e-6
0.132, -1.823e-6
0.133, -1.804e-6
0.134, -1.787e-6
0.135, -1.768e-6
0.136, -1.747e-6
0.137, -1.731e-6
0.138, -1.716e-6
0.139, -1.699e-6
0.140, -1.683e-6
0.141, -1.664e-6
0.142, -1.647e-6
0.143, -1.632e-6
0.144, -1.618e-6
0.145, -1.599e-6
0.146, -1.584e-6
0.147, -1.566e-6
0.148, -1.550e-6
0.149, -1.530e-6
0.150, -1.509e-6
0.151, -1.490e-6
0.152, -1.469e-6
0.153, -1.450e-6
0.154, -1.432e-6
0.155, -1.413e-6
0.156, -1.397e-6
0.157, -1.382e-6
0.158, -1.363e-6
0.159, -1.347e-6
0.160, -1.328e-6
0.161, -1.308e-6
0.162, -1.293e-6
0.163, -1.274e-6
0.164, -1.259e-6
0.165, -1.241e-6
0.166, -1.218e-6
0.167, -1.198e-6
0.168, -1.180e-6
0.169, -1.161e-6
0.170, -1.143e-6
0.171, -1.123e-6
0.172, -1.106e-6
0.173, -1.083e-6
0.174, -1.058e-6
0.175, -1.038e-6
0.176, -1.022e-6
0.177, -9.985e-7
0.178, -9.750e-7
0.179, -9.505e-7
0.180, -9.267e-7
0.181, -9.050e-7
0.182, -8.794e-7
0.183, -8.562e-7
0.184, -8.319e-7
0.185, -8.094e-7
0.186, -7.858e-7
0.187, -7.600e-7
0.188, -7.326e-7
0.189, -7.098e-7
0.190, -6.789e-7
0.191, -6.491e-7
0.192, -6.159e-7
0.193, -5.833e-7
0.194, -5.495e-7
0.195, -5.136e-7
0.196, -4.785e-7
0.197, -4.444e-7
0.198, -4.059e-7
0.199, -3.670e-7
0.200, -3.278e-7
0.201, -2.837e-7
0.202, -2.340e-7
0.203, -1.816e-7
0.204, -1.269e-7
0.205, -6.540e-8
0.206, -3.755e-9
0.207, 5.897e-8
0.208, 1.275e-7
0.209, 2.029e-7
0.210, 2.790e-7
0.211, 3.621e-7
0.212, 4.505e-7
0.213, 5.402e-7
0.214, 6.384e-7
0.215, 7.386e-7
0.216, 8.465e-7
0.217, 9.650e-7
0.218, 1.087e-6
0.219, 1.215e-6
0.220, 1.347e-6
0.221, 1.484e-6
0.222, 1.627e-6
0.223, 1.772e-6
0.224, 1.929e-6
0.225, 2.091e-6
0.226, 2.255e-6
0.227, 2.430e-6
0.228, 2.610e-6
0.229, 2.792e-6
0.230, 2.983e-6
0.231, 3.179e-6
0.232, 3.382e-6
0.233, 3.583e-6
0.234, 3.793e-6
0.235, 4.013e-6
0.236, 4.233e-6
0.237, 4.459e-6
0.238, 4.693e-6
0.239, 4.928e-6
0.240, 5.167e-6
0.241, 5.406e-6
0.242, 5.647e-6
0.243, 5.890e-6
0.244, 6.138e-6
0.245, 6.385e-6
0.246, 6.632e-6
0.247, 6.878e-6
0.248, 7.134e-6
0.249, 7.398e-6
0.250, 7.655e-6
0.251, 7.901e-6
0.252, 8.152e-6
0.253, 8.409e-6
0.254, 8.664e-6
0.255, 8.910e-6
0.256, 9.163e-6
0.257, 9.405e-6
0.258, 9.646e-6
0.259, 9.892e-6
0.260, 1.013e-5
0.261, 1.036e-5
0.262, 1.060e-5
0.263, 1.084e-5
0.264, 1.106e-5
0.265, 1.130e-5
0.266, 1.153e-5
0.267, 1.175e-5
0.268, 1.197e-5
0.269, 1.218e-5
0.270, 1.238e-5
0.271, 1.258e-5
0.272, 1.276e-5
0.273, 1.296e-5
0.274, 1.313e-5
0.275, 1.330e-5
0.276, 1.346e-5
0.277, 1.363e-5
0.278, 1.379e-5
0.279, 1.395e-5
0.280, 1.411e-5
0.281, 1.428e-5
0.282, 1.444e-5
0.283, 1.460e-5
0.284, 1.476e-5
0.285, 1.491e-5
0.286, 1.506e-5
0.287, 1.520e-5
0.288, 1.535e-5
0.289, 1.551e-5
0.290, 1.565e-5
0.291, 1.578e-5
0.292, 1.593e-5
0.293, 1.607e-5
0.294, 1.622e-5
0.295, 1.636e-5
0.296, 1.650e-5
0.297, 1.664e-5
0.298, 1.676e-5
0.299, 1.688e-5
0.300, 1.701e-5
0.301, 1.714e-5
0.302, 1.726e-5
0.303, 1.737e-5
0.304, 1.748e-5
0.305, 1.760e-5
0.306, 1.771e-5
0.307, 1.784e-5
0.308, 1.796e-5
0.309, 1.807e-5
0.310, 1.816e-5
0.311, 1.826e-5
0.312, 1.837e-5
0.313, 1.848e-5
0.314, 1.857e-5
0.315, 1.868e-5
0.316, 1.880e-5
0.317, 1.890e-5
0.318, 1.898e-5
0.319, 1.906e-5
0.320, 1.914e-5
0.321, 1.922e-5
0.322, 1.929e-5
0.323, 1.937e-5
0.324, 1.944e-5
0.325, 1.953e-5
0.326, 1.961e-5
0.327, 1.968e-5
0.328, 1.976e-5
0.329, 1.983e-5
0.330, 1.988e-5
0.331, 1.996e-5
0.332, 2.002e-5
0.333, 2.009e-5
0.334, 2.016e-5
0.335, 2.022e-5
0.336, 2.028e-5
0.337, 2.033e-5
0.338, 2.040e-5
0.339, 2.046e-5
0.340, 2.053e-5
0.341, 2.060e-5
0.342, 2.067e-5
0.343, 2.073e-5
0.344, 2.079e-5
0.345, 2.086e-5
0.346, 2.092e-5
0.347, 2.097e-5
0.348, 2.102e-5
0.349, 2.108e-5
0.350, 2.112e-5
0.351, 2.118e-5
0.352, 2.125e-5
0.353, 2.130e-5
0.354, 2.135e-5
0.355, 2.142e-5
0.356, 2.146e-5
0.357, 2.152e-5
0.358, 2.159e-5
0.359, 2.165e-5
0.360, 2.170e-5
0.361, 2.174e-5
0.362, 2.179e-5
0.363, 2.185e-5
0.364, 2.190e-5
0.365, 2.195e-5
0.366, 2.199e-5
0.367, 2.202e-5
0.368, 2.208e-5
0.369, 2.213e-5
0.370, 2.216e-5
0.371, 2.221e-5
0.372, 2.225e-5
0.373, 2.229e-5
0.374, 2.233e-5
0.375, 2.237e-5
0.376, 2.241e-5
0.377, 2.243e-5
0.378, 2.247e-5
0.379, 2.253e-5
0.380, 2.257e-5
0.381, 2.260e-5
0.382, 2.262e-5
0.383, 2.263e-5
0.384, 2.264e-5
0.385, 2.268e-5
0.386, 2.271e-5
0.387, 2.274e-5
0.388, 2.278e-5
0.389, 2.280e-5
0.390, 2.285e-5
0.391, 2.289e-5
0.392, 2.293e-5
0.393, 2.296e-5
0.394, 2.297e-5
0.395, 2.301e-5
0.396, 2.301e-5
0.397, 2.301e-5
0.398, 2.302e-5
0.399, 2.305e-5
0.400, 2.308e-5
0.401, 2.311e-5
0.402, 2.312e-5
0.403, 2.312e-5
0.404, 2.313e-5
0.405, 2.314e-5
0.406, 2.317e-5
0.407, 2.318e-5
0.408, 2.319e-5
0.409, 2.324e-5
0.410, 2.326e-5
0.411, 2.326e-5
0.412, 2.327e-5
0.413, 2.328e-5
0.414, 2.328e-5
0.415, 2.328e-5
0.416, 2.329e-5
0.417, 2.330e-5
0.418, 2.331e-5
0.419, 2.332e-5
0.420, 2.333e-5
0.421, 2.333e-5
0.422, 2.332e-5
0.423, 2.332e-5
0.424, 2.332e-5
0.425, 2.333e-5
0.426, 2.332e-5
0.427, 2.331e-5
0.428, 2.329e-5
0.429, 2.329e-5
0.430, 2.329e-5
0.431, 2.327e-5
0.432, 2.326e-5
0.433, 2.327e-5
0.434, 2.326e-5
0.435, 2.325e-5
0.436, 2.325e-5
0.437, 2.324e-5
0.438, 2.323e-5
0.439, 2.321e-5
0.440, 2.319e-5
0.441, 2.318e-5
0.442, 2.320e-5
0.443, 2.320e-5
0.444, 2.315e-5
0.445, 2.311e-5
0.446, 2.308e-5
0.447, 2.307e-5
0.448, 2.305e-5
0.449, 2.304e-5
0.450, 2.299e-5
0.451, 2.298e-5
0.452, 2.299e-5
0.453, 2.297e-5
0.454, 2.293e-5
0.455, 2.289e-5
0.456, 2.286e-5
0.457, 2.284e-5
0.458, 2.282e-5
0.459, 2.281e-5
0.460, 2.280e-5
0.461, 2.279e-5
0.462, 2.278e-5
0.463, 2.275e-5
0.464, 2.272e-5
0.465, 2.269e-5
0.466, 2.265e-5
0.467, 2.264e-5
0.468, 2.263e-5
0.469, 2.262e-5
0.470, 2.263e-5
0.471, 2.261e-5
0.472, 2.258e-5
0.473, 2.256e-5
0.474, 2.254e-5
0.475, 2.252e-5
0.476, 2.249e-5
0.477, 2.244e-5
0.478, 2.242e-5
0.479, 2.241e-5
0.480, 2.239e-5
0.481, 2.238e-5
0.482, 2.238e-5
0.483, 2.237e-5
0.484, 2.234e-5
0.485, 2.232e-5
0.486, 2.231e-5
0.487, 2.230e-5
0.488, 2.230e-5
0.489, 2.230e-5
0.490, 2.228e-5
0.491, 2.225e-5
0.492, 2.222e-5
0.493, 2.219e-5
0.494, 2.217e-5
0.495, 2.216e-5
0.496, 2.216e-5
0.497, 2.216e-5
0.498, 2.216e-5
0.499, 2.217e-5
0.500, 2.216e-5
0.501, 2.215e-5
0.502, 2.215e-5
0.503, 2.214e-5
0.504, 2.214e-5
0.505, 2.215e-5
0.506, 2.215e-5
0.507, 2.216e-5
0.508, 2.216e-5
0.509, 2.215e-5
0.510, 2.213e-5
0.511, 2.213e-5
0.512, 2.214e-5
0.513, 2.216e-5
0.514, 2.215e-5
0.515, 2.216e-5
0.516, 2.218e-5
0.517, 2.217e-5
0.518, 2.216e-5
0.519, 2.217e-5
0.520, 2.218e-5
0.521, 2.219e-5
0.522, 2.222e-5
0.523, 2.224e-5
0.524, 2.225e-5
0.525, 2.228e-5
0.526, 2.230e-5
0.527, 2.234e-5
0.528, 2.234e-5
0.529, 2.235e-5
0.530, 2.238e-5
0.531, 2.243e-5
0.532, 2.244e-5
0.533, 2.245e-5
0.534, 2.247e-5
0.535, 2.251e-5
0.536, 2.255e-5
0.537, 2.259e-5
0.538, 2.261e-5
0.539, 2.266e-5
0.540, 2.270e-5
0.541, 2.272e-5
0.542, 2.278e-5
0.543, 2.281e-5
0.544, 2.285e-5
0.545, 2.289e-5
0.546, 2.292e-5
0.547, 2.297e-5
0.548, 2.302e-5
0.549, 2.307e-5
0.550, 2.313e-5
0.551, 2.319e-5
0.552, 2.324e-5
0.553, 2.330e-5
0.554, 2.336e-5
0.555, 2.343e-5
0.556, 2.349e-5
0.557, 2.356e-5
0.558, 2.363e-5
0.559, 2.368e-5
0.560, 2.375e-5
0.561, 2.382e-5
0.562, 2.390e-5
0.563, 2.398e-5
0.564, 2.407e-5
0.565, 2.413e-5
0.566, 2.420e-5
0.567, 2.426e-5
0.568, 2.434e-5
0.569, 2.444e-5
0.570, 2.451e-5
0.571, 2.461e-5
0.572, 2.471e-5
0.573, 2.479e-5
0.574, 2.487e-5
0.575, 2.495e-5
0.576, 2.503e-5
0.577, 2.513e-5
0.578, 2.522e-5
0.579, 2.532e-5
0.580, 2.541e-5
0.581, 2.551e-5
0.582, 2.563e-5
0.583, 2.572e-5
0.584, 2.581e-5
0.585, 2.592e-5
0.586, 2.603e-5
0.587, 2.613e-5
0.588, 2.625e-5
0.589, 2.637e-5
0.590, 2.648e-5
0.591, 2.659e-5
0.592, 2.671e-5
0.593, 2.682e-5
0.594, 2.693e-5
0.595, 2.707e-5
0.596, 2.718e-5
0.597, 2.729e-5
0.598, 2.741e-5
0.599, 2.753e-5
0.600, 2.765e-5
0.601, 2.777e-5
0.602, 2.790e-5
0.603, 2.803e-5
0.604, 2.817e-5
0.605, 2.829e-5
0.606, 2.842e-5
0.607, 2.856e-5
0.608, 2.868e-5
0.609, 2.880e-5
0.610, 2.893e-5
0.611, 2.908e-5
0.612, 2.923e-5
0.613, 2.938e-5
0.614, 2.954e-5
0.615, 2.971e-5
0.616, 2.987e-5
0.617, 3.001e-5
0.618, 3.014e-5
0.619, 3.026e-5
0.620, 3.043e-5
0.621, 3.062e-5
0.622, 3.080e-5
0.623, 3.094e-5
0.624, 3.109e-5
0.625, 3.122e-5
0.626, 3.137e-5
0.627, 3.155e-5
0.628, 3.172e-5
0.629, 3.189e-5
0.630, 3.205e-5
0.631, 3.221e-5
0.632, 3.240e-5
0.633, 3.259e-5
0.634, 3.277e-5
0.635, 3.294e-5
0.636, 3.311e-5
0.637, 3.330e-5
0.638, 3.349e-5
0.639, 3.368e-5
0.640, 3.387e-5
0.641, 3.409e-5
0.642, 3.430e-5
0.643, 3.451e-5
0.644, 3.473e-5
0.645, 3.496e-5
0.646, 3.521e-5
0.647, 3.544e-5
0.648, 3.566e-5
0.649, 3.588e-5
0.650, 3.614e-5
0.651, 3.639e-5
0.652, 3.664e-5
0.653, 3.686e-5
0.654, 3.711e-5
0.655, 3.737e-5
0.656, 3.766e-5
0.657, 3.793e-5
0.658, 3.822e-5
0.659, 3.853e-5
0.660, 3.883e-5
0.661, 3.912e-5
0.662, 3.941e-5
0.663, 3.972e-5
0.664, 4.006e-5
0.665, 4.037e-5
0.666, 4.068e-5
0.667, 4.103e-5
0.668, 4.136e-5
0.669, 4.172e-5
0.670, 4.210e-5
0.671, 4.244e-5
0.672, 4.281e-5
0.673, 4.320e-5
0.674, 4.360e-5
0.675, 4.400e-5
0.676, 4.438e-5
0.677, 4.477e-5
0.678, 4.520e-5
0.679, 4.564e-5
0.680, 4.609e-5
0.681, 4.655e-5
0.682, 4.698e-5
0.683, 4.743e-5
0.684, 4.793e-5
0.685, 4.843e-5
0.686, 4.894e-5
0.687, 4.944e-5
0.688, 4.997e-5
0.689, 5.052e-5
0.690, 5.107e-5
0.691, 5.165e-5
0.692, 5.226e-5
0.693, 5.283e-5
0.694, 5.340e-5
0.695, 5.406e-5
0.696, 5.472e-5
0.697, 5.534e-5
0.698, 5.599e-5
0.699, 5.663e-5
0.700, 5.729e-5
0.701, 5.797e-5
0.702, 5.868e-5
0.703, 5.939e-5
0.704, 6.015e-5
0.705, 6.090e-5
0.706, 6.165e-5
0.707, 6.246e-5
0.708, 6.326e-5
0.709, 6.407e-5
0.710, 6.488e-5
0.711, 6.566e-5
0.712, 6.649e-5
0.713, 6.736e-5
0.714, 6.827e-5
0.715, 6.920e-5
0.716, 7.009e-5
0.717, 7.101e-5
0.718, 7.196e-5
0.719, 7.292e-5
0.720, 7.393e-5
0.721, 7.497e-5
0.722, 7.599e-5
0.723, 7.701e-5
0.724, 7.802e-5
0.725, 7.909e-5
0.726, 8.014e-5
0.727, 8.120e-5
0.728, 8.228e-5
0.729, 8.339e-5
0.730, 8.449e-5
0.731, 8.565e-5
0.732, 8.681e-5
0.733, 8.797e-5
0.734, 8.915e-5
0.735, 9.035e-5
0.736, 9.160e-5
0.737, 9.283e-5
0.738, 9.406e-5
0.739, 9.531e-5
0.740, 9.659e-5
0.741, 9.789e-5
0.742, 9.922e-5
0.743, 1.005e-4
0.744, 1.019e-4
0.745, 1.033e-4
0.746, 1.047e-4
0.747, 1.061e-4
0.748, 1.075e-4
0.749, 1.089e-4
0.750, 1.104e-4
0.751, 1.118e-4
0.752, 1.132e-4
0.753, 1.146e-4
0.754, 1.161e-4
0.755, 1.176e-4
0.756, 1.192e-4
0.757, 1.207e-4
0.758, 1.223e-4
0.759, 1.239e-4
0.760, 1.255e-4
0.761, 1.271e-4
0.762, 1.287e-4
0.763, 1.303e-4
0.764, 1.320e-4
0.765, 1.336e-4
0.766, 1.353e-4
0.767, 1.370e-4
0.768, 1.387e-4
0.769, 1.404e-4
0.770, 1.422e-4
0.771, 1.439e-4
0.772, 1.457e-4
0.773, 1.475e-4
0.774, 1.494e-4
0.775, 1.511e-4
0.776, 1.530e-4
0.777, 1.549e-4
0.778, 1.568e-4
0.779, 1.587e-4
0.780, 1.606e-4
0.781, 1.625e-4
0.782, 1.645e-4
0.783, 1.665e-4
0.784, 1.685e-4
0.785, 1.705e-4
0.786, 1.726e-4
0.787, 1.747e-4
0.788, 1.767e-4
0.789, 1.788e-4
0.790, 1.809e-4
0.791, 1.830e-4
0.792, 1.852e-4
0.793, 1.873e-4
0.794, 1.895e-4
0.795, 1.917e-4
0.796, 1.939e-4
0.797, 1.962e-4
0.798, 1.985e-4
0.799, 2.007e-4
0.800, 2.025e-4
0.799, 2.004e-4
0.798, 1.961e-4
0.797, 1.918e-4
0.796, 1.878e-4
0.795, 1.839e-4
0.794, 1.801e-4
0.793, 1.765e-4
0.792, 1.729e-4
0.791, 1.695e-4
0.790, 1.661e-4
0.789, 1.628e-4
0.788, 1.597e-4
0.787, 1.565e-4
0.786, 1.535e-4
0.785, 1.505e-4
0.784, 1.474e-4
0.783, 1.444e-4
0.782, 1.415e-4
0.781, 1.386e-4
0.780, 1.359e-4
0.779, 1.332e-4
0.778, 1.305e-4
0.777, 1.279e-4
0.776, 1.254e-4
0.775, 1.229e-4
0.774, 1.204e-4
0.773, 1.180e-4
0.772, 1.156e-4
0.771, 1.132e-4
0.770, 1.109e-4
0.769, 1.086e-4
0.768, 1.064e-4
0.767, 1.042e-4
0.766, 1.020e-4
0.765, 9.995e-5
0.764, 9.792e-5
0.763, 9.588e-5
0.762, 9.389e-5
0.761, 9.193e-5
0.760, 9.000e-5
0.759, 8.813e-5
0.758, 8.629e-5
0.757, 8.444e-5
0.756, 8.265e-5
0.755, 8.087e-5
0.754, 7.913e-5
0.753, 7.747e-5
0.752, 7.578e-5
0.751, 7.418e-5
0.750, 7.258e-5
0.749, 7.099e-5
0.748, 6.938e-5
0.747, 6.784e-5
0.746, 6.637e-5
0.745, 6.492e-5
0.744, 6.350e-5
0.743, 6.208e-5
0.742, 6.066e-5
0.741, 5.927e-5
0.740, 5.795e-5
0.739, 5.663e-5
0.738, 5.532e-5
0.737, 5.404e-5
0.736, 5.279e-5
0.735, 5.157e-5
0.734, 5.036e-5
0.733, 4.915e-5
0.732, 4.801e-5
0.731, 4.687e-5
0.730, 4.575e-5
0.729, 4.467e-5
0.728, 4.357e-5
0.727, 4.249e-5
0.726, 4.145e-5
0.725, 4.045e-5
0.724, 3.944e-5
0.723, 3.846e-5
0.722, 3.750e-5
0.721, 3.657e-5
0.720, 3.563e-5
0.719, 3.471e-5
0.718, 3.382e-5
0.717, 3.292e-5
0.716, 3.203e-5
0.715, 3.118e-5
0.714, 3.034e-5
0.713, 2.955e-5
0.712, 2.875e-5
0.711, 2.796e-5
0.710, 2.718e-5
0.709, 2.643e-5
0.708, 2.571e-5
0.707, 2.499e-5
0.706, 2.428e-5
0.705, 2.359e-5
0.704, 2.289e-5
0.703, 2.222e-5
0.702, 2.156e-5
0.701, 2.094e-5
0.700, 2.032e-5
0.699, 1.970e-5
0.698, 1.909e-5
0.697, 1.849e-5
0.696, 1.790e-5
0.695, 1.734e-5
0.694, 1.678e-5
0.693, 1.622e-5
0.692, 1.567e-5
0.691, 1.514e-5
0.690, 1.460e-5
0.689, 1.410e-5
0.688, 1.360e-5
0.687, 1.312e-5
0.686, 1.264e-5
0.685, 1.216e-5
0.684, 1.169e-5
0.683, 1.127e-5
0.682, 1.083e-5
0.681, 1.039e-5
0.680, 9.951e-6
0.679, 9.531e-6
0.678, 9.115e-6
0.677, 8.704e-6
0.676, 8.310e-6
0.675, 7.924e-6
0.674, 7.553e-6
0.673, 7.176e-6
0.672, 6.800e-6
0.671, 6.436e-6
0.670, 6.086e-6
0.669, 5.736e-6
0.668, 5.396e-6
0.667, 5.068e-6
0.666, 4.739e-6
0.665, 4.414e-6
0.664, 4.098e-6
0.663, 3.785e-6
0.662, 3.491e-6
0.661, 3.195e-6
0.660, 2.908e-6
0.659, 2.620e-6
0.658, 2.336e-6
0.657, 2.070e-6
0.656, 1.800e-6
0.655, 1.532e-6
0.654, 1.273e-6
0.653, 1.011e-6
0.652, 7.584e-7
0.651, 5.133e-7
0.650, 2.626e-7
0.649, 2.839e-8
0.648, -2.072e-7
0.647, -4.370e-7
0.646, -6.691e-7
0.645, -9.046e-7
0.644, -1.121e-6
0.643, -1.337e-6
0.642, -1.548e-6
0.641, -1.752e-6
0.640, -1.960e-6
0.639, -2.157e-6
0.638, -2.353e-6
0.637, -2.548e-6
0.636, -2.741e-6
0.635, -2.930e-6
0.634, -3.114e-6
0.633, -3.296e-6
0.632, -3.486e-6
0.631, -3.662e-6
0.630, -3.828e-6
0.629, -4.003e-6
0.628, -4.166e-6
0.627, -4.336e-6
0.626, -4.505e-6
0.625, -4.657e-6
0.624, -4.823e-6
0.623, -4.979e-6
0.622, -5.127e-6
0.621, -5.280e-6
0.620, -5.422e-6
0.619, -5.564e-6
0.618, -5.711e-6
0.617, -5.846e-6
0.616, -5.985e-6
0.615, -6.119e-6
0.614, -6.261e-6
0.613, -6.394e-6
0.612, -6.518e-6
0.611, -6.647e-6
0.610, -6.765e-6
0.609, -6.881e-6
0.608, -7.008e-6
0.607, -7.132e-6
0.606, -7.244e-6
0.605, -7.362e-6
0.604, -7.468e-6
0.603, -7.581e-6
0.602, -7.692e-6
0.601, -7.795e-6
0.600, -7.894e-6
0.599, -7.981e-6
0.598, -8.079e-6
0.597, -8.185e-6
0.596, -8.279e-6
0.595, -8.382e-6
0.594, -8.484e-6
0.593, -8.572e-6
0.592, -8.664e-6
0.591, -8.746e-6
0.590, -8.835e-6
0.589, -8.921e-6
0.588, -9.000e-6
0.587, -9.078e-6
0.586, -9.154e-6
0.585, -9.236e-6
0.584, -9.309e-6
0.583, -9.375e-6
0.582, -9.452e-6
0.581, -9.527e-6
0.580, -9.592e-6
0.579, -9.664e-6
0.578, -9.728e-6
0.577, -9.793e-6
0.576, -9.865e-6
0.575, -9.933e-6
0.574, -9.993e-6
0.573, -1.005e-5
0.572, -1.009e-5
0.571, -1.015e-5
0.570, -1.020e-5
0.569, -1.025e-5
0.568, -1.030e-5
0.567, -1.035e-5
0.566, -1.040e-5
0.565, -1.045e-5
0.564, -1.049e-5
0.563, -1.055e-5
0.562, -1.059e-5
0.561, -1.063e-5
0.560, -1.067e-5
0.559, -1.070e-5
0.558, -1.073e-5
0.557, -1.077e-5
0.556, -1.080e-5
0.555, -1.083e-5
0.554, -1.085e-5
0.553, -1.087e-5
0.552, -1.091e-5
0.551, -1.095e-5
0.550, -1.098e-5
0.549, -1.101e-5
0.548, -1.103e-5
0.547, -1.105e-5
0.546, -1.108e-5
0.545, -1.110e-5
0.544, -1.112e-5
0.543, -1.114e-5
0.542, -1.115e-5
0.541, -1.117e-5
0.540, -1.119e-5
0.539, -1.121e-5
0.538, -1.123e-5
0.537, -1.124e-5
0.536, -1.124e-5
0.535, -1.125e-5
0.534, -1.127e-5
0.533, -1.127e-5
0.532, -1.128e-5
0.531, -1.129e-5
0.530, -1.130e-5
0.529, -1.131e-5
0.528, -1.133e-5
0.527, -1.133e-5
0.526, -1.133e-5
0.525, -1.134e-5
0.524, -1.134e-5
0.523, -1.134e-5
0.522, -1.135e-5
0.521, -1.134e-5
0.520, -1.134e-5
0.519, -1.135e-5
0.518, -1.135e-5
0.517, -1.135e-5
0.516, -1.134e-5
0.515, -1.134e-5
0.514, -1.133e-5
0.513, -1.133e-5
0.512, -1.134e-5
0.511, -1.134e-5
0.510, -1.132e-5
0.509, -1.132e-5
0.508, -1.131e-5
0.507, -1.131e-5
0.506, -1.131e-5
0.505, -1.130e-5
0.504, -1.129e-5
0.503, -1.129e-5
0.502, -1.128e-5
0.501, -1.127e-5
0.500, -1.125e-5
0.499, -1.125e-5
0.498, -1.124e-5
0.497, -1.122e-5
0.496, -1.122e-5
0.495, -1.121e-5
0.494, -1.120e-5
0.493, -1.118e-5
0.492, -1.117e-5
0.491, -1.117e-5
0.490, -1.116e-5
0.489, -1.113e-5
0.488, -1.113e-5
0.487, -1.112e-5
0.486, -1.110e-5
0.485, -1.108e-5
0.484, -1.104e-5
0.483, -1.102e-5
0.482, -1.101e-5
0.481, -1.098e-5
0.480, -1.098e-5
0.479, -1.096e-5
0.478, -1.094e-5
0.477, -1.094e-5
0.476, -1.093e-5
0.475, -1.091e-5
0.474, -1.089e-5
0.473, -1.087e-5
0.472, -1.085e-5
0.471, -1.084e-5
0.470, -1.083e-5
0.469, -1.081e-5
0.468, -1.080e-5
0.467, -1.079e-5
0.466, -1.078e-5
0.465, -1.076e-5
0.464, -1.074e-5
0.463, -1.073e-5
0.462, -1.071e-5
0.461, -1.070e-5
0.460, -1.068e-5
0.459, -1.066e-5
0.458, -1.066e-5
0.457, -1.065e-5
0.456, -1.064e-5
0.455, -1.064e-5
0.454, -1.063e-5
0.453, -1.061e-5
0.452, -1.060e-5
0.451, -1.059e-5
0.450, -1.057e-5
0.449, -1.057e-5
0.448, -1.057e-5
0.447, -1.057e-5
0.446, -1.056e-5
0.445, -1.055e-5
0.444, -1.052e-5
0.443, -1.050e-5
0.442, -1.050e-5
0.441, -1.047e-5
0.440, -1.046e-5
0.439, -1.045e-5
0.438, -1.044e-5
0.437, -1.043e-5
0.436, -1.040e-5
0.435, -1.039e-5
0.434, -1.039e-5
0.433, -1.038e-5
0.432, -1.037e-5
0.431, -1.037e-5
0.430, -1.037e-5
0.429, -1.037e-5
0.428, -1.035e-5
0.427, -1.034e-5
0.426, -1.033e-5
0.425, -1.031e-5
0.424, -1.031e-5
0.423, -1.030e-5
0.422, -1.030e-5
0.421, -1.029e-5
0.420, -1.028e-5
0.419, -1.028e-5
0.418, -1.028e-5
0.417, -1.026e-5
0.416, -1.026e-5
0.415, -1.027e-5
0.414, -1.027e-5
0.413, -1.026e-5
0.412, -1.024e-5
0.411, -1.023e-5
0.410, -1.023e-5
0.409, -1.023e-5
0.408, -1.023e-5
0.407, -1.022e-5
0.406, -1.022e-5
0.405, -1.022e-5
0.404, -1.021e-5
0.403, -1.021e-5
0.402, -1.020e-5
0.401, -1.020e-5
0.400, -1.021e-5
0.399, -1.021e-5
0.398, -1.020e-5
0.397, -1.020e-5
0.396, -1.020e-5
0.395, -1.020e-5
0.394, -1.020e-5
0.393, -1.021e-5
0.392, -1.025e-5
0.391, -1.027e-5
0.390, -1.026e-5
0.389, -1.024e-5
0.388, -1.024e-5
0.387, -1.024e-5
0.386, -1.025e-5
0.385, -1.025e-5
0.384, -1.025e-5
0.383, -1.026e-5
0.382, -1.027e-5
0.381, -1.028e-5
0.380, -1.028e-5
0.379, -1.028e-5
0.378, -1.030e-5
0.377, -1.031e-5
0.376, -1.032e-5
0.375, -1.032e-5
0.374, -1.033e-5
0.373, -1.034e-5
0.372, -1.035e-5
0.371, -1.037e-5
0.370, -1.039e-5
0.369, -1.040e-5
0.368, -1.041e-5
0.367, -1.043e-5
0.366, -1.043e-5
0.365, -1.043e-5
0.364, -1.043e-5
0.363, -1.044e-5
0.362, -1.047e-5
0.361, -1.048e-5
0.360, -1.049e-5
0.359, -1.051e-5
0.358, -1.052e-5
0.357, -1.054e-5
0.356, -1.055e-5
0.355, -1.057e-5
0.354, -1.058e-5
0.353, -1.060e-5
0.352, -1.062e-5
0.351, -1.063e-5
0.350, -1.065e-5
0.349, -1.067e-5
0.348, -1.070e-5
0.347, -1.072e-5
0.346, -1.074e-5
0.345, -1.076e-5
0.344, -1.078e-5
0.343, -1.080e-5
0.342, -1.082e-5
0.341, -1.084e-5
0.340, -1.084e-5
0.339, -1.085e-5
0.338, -1.088e-5
0.337, -1.090e-5
0.336, -1.094e-5
0.335, -1.097e-5
0.334, -1.099e-5
0.333, -1.101e-5
0.332, -1.103e-5
0.331, -1.106e-5
0.330, -1.108e-5
0.329, -1.110e-5
0.328, -1.112e-5
0.327, -1.114e-5
0.326, -1.116e-5
0.325, -1.119e-5
0.324, -1.122e-5
0.323, -1.125e-5
0.322, -1.128e-5
0.321, -1.129e-5
0.320, -1.132e-5
0.319, -1.136e-5
0.318, -1.139e-5
0.317, -1.142e-5
0.316, -1.145e-5
0.315, -1.148e-5
0.314, -1.151e-5
0.313, -1.154e-5
0.312, -1.157e-5
0.311, -1.160e-5
0.310, -1.162e-5
0.309, -1.167e-5
0.308, -1.169e-5
0.307, -1.173e-5
0.306, -1.176e-5
0.305, -1.178e-5
0.304, -1.183e-5
0.303, -1.187e-5
0.302, -1.190e-5
0.301, -1.193e-5
0.300, -1.197e-5
0.299, -1.200e-5
0.298, -1.205e-5
0.297, -1.208e-5
0.296, -1.213e-5
0.295, -1.215e-5
0.294, -1.218e-5
0.293, -1.222e-5
0.292, -1.224e-5
0.291, -1.226e-5
0.290, -1.230e-5
0.289, -1.234e-5
0.288, -1.238e-5
0.287, -1.241e-5
0.286, -1.244e-5
0.285, -1.247e-5
0.284, -1.251e-5
0.283, -1.254e-5
0.282, -1.259e-5
0.281, -1.261e-5
0.280, -1.264e-5
0.279, -1.269e-5
0.278, -1.274e-5
0.277, -1.276e-5
0.276, -1.279e-5
0.275, -1.283e-5
0.274, -1.287e-5
0.273, -1.290e-5
0.272, -1.294e-5
0.271, -1.296e-5
0.270, -1.299e-5
0.269, -1.303e-5
0.268, -1.304e-5
0.267, -1.307e-5
0.266, -1.311e-5
0.265, -1.315e-5
0.264, -1.319e-5
0.263, -1.323e-5
0.262, -1.328e-5
0.261, -1.331e-5
0.260, -1.333e-5
0.259, -1.338e-5
0.258, -1.342e-5
0.257, -1.344e-5
0.256, -1.347e-5
0.255, -1.350e-5
0.254, -1.351e-5
0.253, -1.352e-5
0.252, -1.353e-5
0.251, -1.356e-5
0.250, -1.358e-5
0.249, -1.360e-5
0.248, -1.362e-5
0.247, -1.365e-5
0.246, -1.367e-5
0.245, -1.367e-5
0.244, -1.367e-5
0.243, -1.370e-5
0.242, -1.372e-5
0.241, -1.374e-5
0.240, -1.374e-5
0.239, -1.374e-5
0.238, -1.374e-5
0.237, -1.376e-5
0.236, -1.376e-5
0.235, -1.375e-5
0.234, -1.375e-5
0.233, -1.375e-5
0.232, -1.375e-5
0.231, -1.374e-5
0.230, -1.374e-5
0.229, -1.375e-5
0.228, -1.374e-5
0.227, -1.371e-5
0.226, -1.368e-5
0.225, -1.366e-5
0.224, -1.364e-5
0.223, -1.361e-5
0.222, -1.358e-5
0.221, -1.356e-5
0.220, -1.354e-5
0.219, -1.352e-5
0.218, -1.348e-5
0.217, -1.345e-5
0.216, -1.341e-5
0.215, -1.337e-5
0.214, -1.331e-5
0.213, -1.326e-5
0.212, -1.322e-5
0.211, -1.317e-5
0.210, -1.311e-5
0.209, -1.305e-5
0.208, -1.300e-5
0.207, -1.295e-5
0.206, -1.288e-5
0.205, -1.282e-5
0.204, -1.275e-5
0.203, -1.268e-5
0.202, -1.261e-5
0.201, -1.253e-5
0.200, -1.247e-5
0.199, -1.239e-5
0.198, -1.231e-5
0.197, -1.225e-5
0.196, -1.217e-5
0.195, -1.208e-5
0.194, -1.200e-5
0.193, -1.193e-5
0.192, -1.186e-5
0.191, -1.178e-5
0.190, -1.170e-5
0.189, -1.163e-5
0.188, -1.156e-5
0.187, -1.149e-5
0.186, -1.140e-5
0.185, -1.131e-5
0.184, -1.126e-5
0.183, -1.118e-5
0.182, -1.112e-5
0.181, -1.106e-5
0.180, -1.099e-5
0.179, -1.094e-5
0.178, -1.088e-5
0.177, -1.081e-5
0.176, -1.076e-5
0.175, -1.071e-5
0.174, -1.065e-5
0.173, -1.058e-5
0.172, -1.054e-5
0.171, -1.049e-5
0.170, -1.044e-5
0.169, -1.038e-5
0.168, -1.033e-5
0.167, -1.029e-5
0.166, -1.024e-5
0.165, -1.019e-5
0.164, -1.016e-5
0.163, -1.012e-5
0.162, -1.007e-5
0.161, -1.001e-5
0.160, -9.966e-6
0.159, -9.902e-6
0.158, -9.844e-6
0.157, -9.793e-6
0.156, -9.741e-6
0.155, -9.692e-6
0.154, -9.643e-6
0.153, -9.608e-6
0.152, -9.568e-6
0.151, -9.536e-6
0.150, -9.504e-6
0.149, -9.452e-6
0.148, -9.422e-6
0.147, -9.378e-6
0.146, -9.352e-6
0.145, -9.316e-6
0.144, -9.271e-6
0.143, -9.226e-6
0.142, -9.175e-6
0.141, -9.123e-6
0.140, -9.069e-6
0.139, -9.031e-6
0.138, -8.982e-6
0.137, -8.946e-6
0.136, -8.919e-6
0.135, -8.882e-6
0.134, -8.848e-6
0.133, -8.825e-6
0.132, -8.796e-6
0.131, -8.766e-6
0.130, -8.745e-6
0.129, -8.688e-6
0.128, -8.660e-6
0.127, -8.630e-6
0.126, -8.605e-6
0.125, -8.573e-6
0.124, -8.541e-6
0.123, -8.505e-6
0.122, -8.459e-6
0.121, -8.425e-6
0.120, -8.395e-6
0.119, -8.372e-6
0.118, -8.335e-6
0.117, -8.302e-6
0.116, -8.268e-6
0.115, -8.235e-6
0.114, -8.209e-6
0.113, -8.186e-6
0.112, -8.162e-6
0.111, -8.130e-6
0.110, -8.100e-6
0.109, -8.081e-6
0.108, -8.058e-6
0.107, -8.031e-6
0.106, -8.009e-6
0.105, -7.982e-6
0.104, -7.951e-6
0.103, -7.922e-6
0.102, -7.900e-6
0.101, -7.881e-6
0.100, -7.861e-6
0.099, -7.829e-6
0.098, -7.797e-6
0.097, -7.772e-6
0.096, -7.767e-6
0.095, -7.746e-6
0.094, -7.721e-6
0.093, -7.696e-6
0.092, -7.671e-6
0.091, -7.650e-6
0.090, -7.630e-6
0.089, -7.607e-6
0.088, -7.585e-6
0.087, -7.565e-6
0.086, -7.553e-6
0.085, -7.521e-6
0.084, -7.496e-6
0.083, -7.483e-6
0.082, -7.466e-6
0.081, -7.440e-6
0.080, -7.413e-6
0.079, -7.393e-6
0.078, -7.371e-6
0.077, -7.341e-6
0.076, -7.312e-6
0.075, -7.291e-6
0.074, -7.281e-6
0.073, -7.265e-6
0.072, -7.245e-6
0.071, -7.235e-6
0.070, -7.225e-6
0.069, -7.192e-6
0.068, -7.163e-6
0.067, -7.145e-6
0.066, -7.125e-6
0.065, -7.104e-6
0.064, -7.080e-6
0.063, -7.064e-6
0.062, -7.062e-6
0.061, -7.045e-6
0.060, -7.027e-6
0.059, -7.009e-6
0.058, -6.988e-6
0.057, -6.969e-6
0.056, -6.940e-6
0.055, -6.921e-6
0.054, -6.891e-6
0.053, -6.885e-6
0.052, -6.872e-6
0.051, -6.853e-6
0.050, -6.833e-6
0.049, -6.820e-6
0.048, -6.798e-6
0.047, -6.776e-6
0.046, -6.762e-6
0.045, -6.745e-6
0.044, -6.729e-6
0.043, -6.716e-6
0.042, -6.700e-6
0.041, -6.686e-6
0.040, -6.669e-6
0.039, -6.659e-6
0.038, -6.648e-6
0.037, -6.628e-6
0.036, -6.603e-6
0.035, -6.579e-6
0.034, -6.560e-6
0.033, -6.562e-6
0.032, -6.563e-6
0.031, -6.548e-6
0.030, -6.530e-6
0.029, -6.522e-6
0.028, -6.514e-6
0.027, -6.498e-6
0.026, -6.478e-6
0.025, -6.460e-6
0.024, -6.441e-6
0.023, -6.435e-6
0.022, -6.428e-6
0.021, -6.411e-6
0.020, -6.395e-6
0.019, -6.386e-6
0.018, -6.370e-6
0.017, -6.353e-6
0.016, -6.346e-6
0.015, -6.325e-6
0.014, -6.308e-6
0.013, -6.307e-6
0.012, -6.299e-6
0.011, -6.290e-6
0.010, -6.275e-6
0.009, -6.257e-6
0.008, -6.237e-6
0.007, -6.218e-6
0.006, -6.206e-6
0.005, -6.187e-6
0.004, -6.159e-6
0.003, -6.140e-6
0.002, -6.131e-6
0.001, -6.124e-6
