Dec. 2, 2021   15:48:59
Cyclic Voltammetry
File: d:\Data Source:  Experiment
Instrument Model:  CHI660E
Header: 
Note: 

Init E (V) = 0
High E (V) = 0.8
Low E (V) = 0
Init P/N = P
Scan Rate (V/s) = 0.05
Segment = 6
Sample Interval (V) = 0.001
Quiet Time (sec) = 0
Sensitivity (A/V) = 1e-4

Segment 1:
Ep = 0.506V
ip = 2.639e-4A
Ah = 6.357e-4C

Segment 2:
Ep = 0.224V
ip = -8.322e-6A
Ah = -1.247e-5C

Segment 3:
Ep = 0.341V
ip = 2.650e-5A
Ah = 5.306e-5C

Segment 4:
Ep = 0.223V
ip = -3.927e-6A
Ah = -3.855e-6C

Segment 5:
Ep = 0.260V
ip = 1.530e-5A
Ah = 8.933e-6C

Segment 6:
Ep = 0.229V
ip = -2.416e-6A
Ah = -2.148e-6C

Potential/V, Current/A

0.000, -8.507e-7
0.001, -7.646e-7
0.002, -7.109e-7
0.003, -6.726e-7
0.004, -6.400e-7
0.005, -6.104e-7
0.006, -5.825e-7
0.007, -5.578e-7
0.008, -5.374e-7
0.009, -5.168e-7
0.010, -4.993e-7
0.011, -4.830e-7
0.012, -4.670e-7
0.013, -4.515e-7
0.014, -4.380e-7
0.015, -4.264e-7
0.016, -4.113e-7
0.017, -3.988e-7
0.018, -3.861e-7
0.019, -3.740e-7
0.020, -3.620e-7
0.021, -3.520e-7
0.022, -3.429e-7
0.023, -3.340e-7
0.024, -3.233e-7
0.025, -3.132e-7
0.026, -3.042e-7
0.027, -2.948e-7
0.028, -2.867e-7
0.029, -2.782e-7
0.030, -2.712e-7
0.031, -2.626e-7
0.032, -2.544e-7
0.033, -2.465e-7
0.034, -2.401e-7
0.035, -2.339e-7
0.036, -2.264e-7
0.037, -2.204e-7
0.038, -2.121e-7
0.039, -2.064e-7
0.040, -2.009e-7
0.041, -1.932e-7
0.042, -1.883e-7
0.043, -1.818e-7
0.044, -1.755e-7
0.045, -1.698e-7
0.046, -1.649e-7
0.047, -1.597e-7
0.048, -1.543e-7
0.049, -1.474e-7
0.050, -1.424e-7
0.051, -1.353e-7
0.052, -1.300e-7
0.053, -1.245e-7
0.054, -1.196e-7
0.055, -1.142e-7
0.056, -1.103e-7
0.057, -1.042e-7
0.058, -9.853e-8
0.059, -9.420e-8
0.060, -8.781e-8
0.061, -8.398e-8
0.062, -7.906e-8
0.063, -7.572e-8
0.064, -6.933e-8
0.065, -6.402e-8
0.066, -6.078e-8
0.067, -5.625e-8
0.068, -5.104e-8
0.069, -4.564e-8
0.070, -4.092e-8
0.071, -3.590e-8
0.072, -3.177e-8
0.073, -2.774e-8
0.074, -2.352e-8
0.075, -2.008e-8
0.076, -1.398e-8
0.077, -8.868e-9
0.078, -3.657e-9
0.079, 7.862e-11
0.080, 4.699e-9
0.081, 1.011e-8
0.082, 1.296e-8
0.083, 1.777e-8
0.084, 2.269e-8
0.085, 2.623e-8
0.086, 3.095e-8
0.087, 3.380e-8
0.088, 3.714e-8
0.089, 4.265e-8
0.090, 4.638e-8
0.091, 5.238e-8
0.092, 5.631e-8
0.093, 5.956e-8
0.094, 6.418e-8
0.095, 6.801e-8
0.096, 7.352e-8
0.097, 7.765e-8
0.098, 8.099e-8
0.099, 8.472e-8
0.100, 9.003e-8
0.101, 9.288e-8
0.102, 9.908e-8
0.103, 1.043e-7
0.104, 1.082e-7
0.105, 1.139e-7
0.106, 1.167e-7
0.107, 1.218e-7
0.108, 1.258e-7
0.109, 1.301e-7
0.110, 1.350e-7
0.111, 1.382e-7
0.112, 1.434e-7
0.113, 1.466e-7
0.114, 1.505e-7
0.115, 1.554e-7
0.116, 1.606e-7
0.117, 1.649e-7
0.118, 1.700e-7
0.119, 1.746e-7
0.120, 1.787e-7
0.121, 1.827e-7
0.122, 1.887e-7
0.123, 1.938e-7
0.124, 1.996e-7
0.125, 2.035e-7
0.126, 2.078e-7
0.127, 2.133e-7
0.128, 2.195e-7
0.129, 2.246e-7
0.130, 2.299e-7
0.131, 2.365e-7
0.132, 2.415e-7
0.133, 2.461e-7
0.134, 2.529e-7
0.135, 2.593e-7
0.136, 2.655e-7
0.137, 2.722e-7
0.138, 2.785e-7
0.139, 2.855e-7
0.140, 2.927e-7
0.141, 3.008e-7
0.142, 3.083e-7
0.143, 3.143e-7
0.144, 3.214e-7
0.145, 3.304e-7
0.146, 3.373e-7
0.147, 3.466e-7
0.148, 3.559e-7
0.149, 3.646e-7
0.150, 3.752e-7
0.151, 3.843e-7
0.152, 3.947e-7
0.153, 4.062e-7
0.154, 4.183e-7
0.155, 4.303e-7
0.156, 4.398e-7
0.157, 4.520e-7
0.158, 4.656e-7
0.159, 4.789e-7
0.160, 4.946e-7
0.161, 5.094e-7
0.162, 5.238e-7
0.163, 5.398e-7
0.164, 5.557e-7
0.165, 5.725e-7
0.166, 5.921e-7
0.167, 6.122e-7
0.168, 6.313e-7
0.169, 6.532e-7
0.170, 6.747e-7
0.171, 6.975e-7
0.172, 7.214e-7
0.173, 7.455e-7
0.174, 7.703e-7
0.175, 7.979e-7
0.176, 8.261e-7
0.177, 8.570e-7
0.178, 8.884e-7
0.179, 9.233e-7
0.180, 9.582e-7
0.181, 9.938e-7
0.182, 1.033e-6
0.183, 1.074e-6
0.184, 1.115e-6
0.185, 1.158e-6
0.186, 1.204e-6
0.187, 1.254e-6
0.188, 1.303e-6
0.189, 1.354e-6
0.190, 1.408e-6
0.191, 1.466e-6
0.192, 1.527e-6
0.193, 1.591e-6
0.194, 1.655e-6
0.195, 1.722e-6
0.196, 1.796e-6
0.197, 1.870e-6
0.198, 1.945e-6
0.199, 2.024e-6
0.200, 2.107e-6
0.201, 2.193e-6
0.202, 2.283e-6
0.203, 2.375e-6
0.204, 2.472e-6
0.205, 2.575e-6
0.206, 2.676e-6
0.207, 2.782e-6
0.208, 2.889e-6
0.209, 2.998e-6
0.210, 3.111e-6
0.211, 3.227e-6
0.212, 3.349e-6
0.213, 3.466e-6
0.214, 3.584e-6
0.215, 3.709e-6
0.216, 3.836e-6
0.217, 3.966e-6
0.218, 4.096e-6
0.219, 4.227e-6
0.220, 4.360e-6
0.221, 4.492e-6
0.222, 4.626e-6
0.223, 4.760e-6
0.224, 4.897e-6
0.225, 5.031e-6
0.226, 5.161e-6
0.227, 5.291e-6
0.228, 5.418e-6
0.229, 5.543e-6
0.230, 5.671e-6
0.231, 5.795e-6
0.232, 5.917e-6
0.233, 6.042e-6
0.234, 6.163e-6
0.235, 6.287e-6
0.236, 6.410e-6
0.237, 6.533e-6
0.238, 6.655e-6
0.239, 6.775e-6
0.240, 6.900e-6
0.241, 7.030e-6
0.242, 7.156e-6
0.243, 7.295e-6
0.244, 7.428e-6
0.245, 7.560e-6
0.246, 7.698e-6
0.247, 7.831e-6
0.248, 7.969e-6
0.249, 8.118e-6
0.250, 8.267e-6
0.251, 8.416e-6
0.252, 8.570e-6
0.253, 8.727e-6
0.254, 8.889e-6
0.255, 9.056e-6
0.256, 9.229e-6
0.257, 9.406e-6
0.258, 9.589e-6
0.259, 9.779e-6
0.260, 9.974e-6
0.261, 1.017e-5
0.262, 1.038e-5
0.263, 1.060e-5
0.264, 1.082e-5
0.265, 1.106e-5
0.266, 1.130e-5
0.267, 1.155e-5
0.268, 1.182e-5
0.269, 1.209e-5
0.270, 1.238e-5
0.271, 1.267e-5
0.272, 1.298e-5
0.273, 1.330e-5
0.274, 1.362e-5
0.275, 1.397e-5
0.276, 1.433e-5
0.277, 1.471e-5
0.278, 1.510e-5
0.279, 1.551e-5
0.280, 1.592e-5
0.281, 1.636e-5
0.282, 1.680e-5
0.283, 1.727e-5
0.284, 1.775e-5
0.285, 1.824e-5
0.286, 1.877e-5
0.287, 1.930e-5
0.288, 1.985e-5
0.289, 2.043e-5
0.290, 2.102e-5
0.291, 2.163e-5
0.292, 2.226e-5
0.293, 2.291e-5
0.294, 2.358e-5
0.295, 2.427e-5
0.296, 2.498e-5
0.297, 2.571e-5
0.298, 2.647e-5
0.299, 2.724e-5
0.300, 2.803e-5
0.301, 2.885e-5
0.302, 2.969e-5
0.303, 3.054e-5
0.304, 3.144e-5
0.305, 3.236e-5
0.306, 3.329e-5
0.307, 3.425e-5
0.308, 3.524e-5
0.309, 3.624e-5
0.310, 3.725e-5
0.311, 3.830e-5
0.312, 3.937e-5
0.313, 4.046e-5
0.314, 4.157e-5
0.315, 4.271e-5
0.316, 4.387e-5
0.317, 4.504e-5
0.318, 4.625e-5
0.319, 4.747e-5
0.320, 4.872e-5
0.321, 4.999e-5
0.322, 5.125e-5
0.323, 5.256e-5
0.324, 5.387e-5
0.325, 5.523e-5
0.326, 5.660e-5
0.327, 5.799e-5
0.328, 5.939e-5
0.329, 6.080e-5
0.330, 6.225e-5
0.331, 6.371e-5
0.332, 6.518e-5
0.333, 6.667e-5
0.334, 6.819e-5
0.335, 6.973e-5
0.336, 7.129e-5
0.337, 7.285e-5
0.338, 7.445e-5
0.339, 7.606e-5
0.340, 7.768e-5
0.341, 7.931e-5
0.342, 8.097e-5
0.343, 8.262e-5
0.344, 8.431e-5
0.345, 8.600e-5
0.346, 8.770e-5
0.347, 8.942e-5
0.348, 9.116e-5
0.349, 9.290e-5
0.350, 9.469e-5
0.351, 9.645e-5
0.352, 9.823e-5
0.353, 1.000e-4
0.354, 1.018e-4
0.355, 1.036e-4
0.356, 1.054e-4
0.357, 1.073e-4
0.358, 1.091e-4
0.359, 1.110e-4
0.360, 1.128e-4
0.361, 1.147e-4
0.362, 1.166e-4
0.363, 1.185e-4
0.364, 1.204e-4
0.365, 1.223e-4
0.366, 1.242e-4
0.367, 1.262e-4
0.368, 1.281e-4
0.369, 1.300e-4
0.370, 1.320e-4
0.371, 1.340e-4
0.372, 1.359e-4
0.373, 1.379e-4
0.374, 1.399e-4
0.375, 1.419e-4
0.376, 1.439e-4
0.377, 1.459e-4
0.378, 1.479e-4
0.379, 1.499e-4
0.380, 1.519e-4
0.381, 1.539e-4
0.382, 1.559e-4
0.383, 1.579e-4
0.384, 1.599e-4
0.385, 1.619e-4
0.386, 1.639e-4
0.387, 1.660e-4
0.388, 1.680e-4
0.389, 1.700e-4
0.390, 1.720e-4
0.391, 1.740e-4
0.392, 1.761e-4
0.393, 1.781e-4
0.394, 1.801e-4
0.395, 1.821e-4
0.396, 1.841e-4
0.397, 1.860e-4
0.398, 1.881e-4
0.399, 1.901e-4
0.400, 1.920e-4
0.401, 1.940e-4
0.402, 1.959e-4
0.403, 1.979e-4
0.404, 1.999e-4
0.405, 2.019e-4
0.406, 2.039e-4
0.407, 2.059e-4
0.408, 2.078e-4
0.409, 2.098e-4
0.410, 2.118e-4
0.411, 2.138e-4
0.412, 2.157e-4
0.413, 2.176e-4
0.414, 2.196e-4
0.415, 2.215e-4
0.416, 2.233e-4
0.417, 2.252e-4
0.418, 2.272e-4
0.419, 2.290e-4
0.420, 2.309e-4
0.421, 2.328e-4
0.422, 2.346e-4
0.423, 2.365e-4
0.424, 2.383e-4
0.425, 2.401e-4
0.426, 2.419e-4
0.427, 2.437e-4
0.428, 2.454e-4
0.429, 2.472e-4
0.430, 2.489e-4
0.431, 2.506e-4
0.432, 2.523e-4
0.433, 2.540e-4
0.434, 2.557e-4
0.435, 2.573e-4
0.436, 2.589e-4
0.437, 2.606e-4
0.438, 2.622e-4
0.439, 2.638e-4
0.440, 2.653e-4
0.441, 2.669e-4
0.442, 2.685e-4
0.443, 2.700e-4
0.444, 2.714e-4
0.445, 2.729e-4
0.446, 2.743e-4
0.447, 2.758e-4
0.448, 2.772e-4
0.449, 2.787e-4
0.450, 2.800e-4
0.451, 2.814e-4
0.452, 2.828e-4
0.453, 2.842e-4
0.454, 2.855e-4
0.455, 2.867e-4
0.456, 2.881e-4
0.457, 2.893e-4
0.458, 2.906e-4
0.459, 2.917e-4
0.460, 2.929e-4
0.461, 2.940e-4
0.462, 2.952e-4
0.463, 2.964e-4
0.464, 2.975e-4
0.465, 2.986e-4
0.466, 2.996e-4
0.467, 3.007e-4
0.468, 3.018e-4
0.469, 3.029e-4
0.470, 3.039e-4
0.471, 3.049e-4
0.472, 3.058e-4
0.473, 3.067e-4
0.474, 3.075e-4
0.475, 3.084e-4
0.476, 3.092e-4
0.477, 3.100e-4
0.478, 3.108e-4
0.479, 3.115e-4
0.480, 3.122e-4
0.481, 3.129e-4
0.482, 3.136e-4
0.483, 3.142e-4
0.484, 3.149e-4
0.485, 3.155e-4
0.486, 3.160e-4
0.487, 3.165e-4
0.488, 3.169e-4
0.489, 3.174e-4
0.490, 3.178e-4
0.491, 3.181e-4
0.492, 3.185e-4
0.493, 3.189e-4
0.494, 3.190e-4
0.495, 3.194e-4
0.496, 3.196e-4
0.497, 3.197e-4
0.498, 3.197e-4
0.499, 3.199e-4
0.500, 3.200e-4
0.501, 3.200e-4
0.502, 3.201e-4
0.503, 3.201e-4
0.504, 3.201e-4
0.505, 3.201e-4
0.506, 3.201e-4
0.507, 3.201e-4
0.508, 3.200e-4
0.509, 3.199e-4
0.510, 3.199e-4
0.511, 3.198e-4
0.512, 3.197e-4
0.513, 3.195e-4
0.514, 3.195e-4
0.515, 3.194e-4
0.516, 3.192e-4
0.517, 3.189e-4
0.518, 3.186e-4
0.519, 3.183e-4
0.520, 3.181e-4
0.521, 3.178e-4
0.522, 3.174e-4
0.523, 3.169e-4
0.524, 3.165e-4
0.525, 3.161e-4
0.526, 3.155e-4
0.527, 3.150e-4
0.528, 3.145e-4
0.529, 3.139e-4
0.530, 3.133e-4
0.531, 3.127e-4
0.532, 3.121e-4
0.533, 3.115e-4
0.534, 3.109e-4
0.535, 3.103e-4
0.536, 3.096e-4
0.537, 3.088e-4
0.538, 3.081e-4
0.539, 3.073e-4
0.540, 3.066e-4
0.541, 3.059e-4
0.542, 3.051e-4
0.543, 3.042e-4
0.544, 3.033e-4
0.545, 3.024e-4
0.546, 3.015e-4
0.547, 3.007e-4
0.548, 2.999e-4
0.549, 2.991e-4
0.550, 2.982e-4
0.551, 2.973e-4
0.552, 2.964e-4
0.553, 2.955e-4
0.554, 2.945e-4
0.555, 2.935e-4
0.556, 2.926e-4
0.557, 2.917e-4
0.558, 2.907e-4
0.559, 2.897e-4
0.560, 2.887e-4
0.561, 2.877e-4
0.562, 2.867e-4
0.563, 2.857e-4
0.564, 2.847e-4
0.565, 2.836e-4
0.566, 2.825e-4
0.567, 2.813e-4
0.568, 2.802e-4
0.569, 2.791e-4
0.570, 2.779e-4
0.571, 2.769e-4
0.572, 2.757e-4
0.573, 2.745e-4
0.574, 2.735e-4
0.575, 2.725e-4
0.576, 2.714e-4
0.577, 2.703e-4
0.578, 2.692e-4
0.579, 2.680e-4
0.580, 2.669e-4
0.581, 2.659e-4
0.582, 2.647e-4
0.583, 2.637e-4
0.584, 2.625e-4
0.585, 2.614e-4
0.586, 2.603e-4
0.587, 2.592e-4
0.588, 2.580e-4
0.589, 2.568e-4
0.590, 2.558e-4
0.591, 2.547e-4
0.592, 2.535e-4
0.593, 2.525e-4
0.594, 2.514e-4
0.595, 2.504e-4
0.596, 2.494e-4
0.597, 2.485e-4
0.598, 2.475e-4
0.599, 2.463e-4
0.600, 2.452e-4
0.601, 2.442e-4
0.602, 2.432e-4
0.603, 2.422e-4
0.604, 2.412e-4
0.605, 2.401e-4
0.606, 2.392e-4
0.607, 2.382e-4
0.608, 2.372e-4
0.609, 2.362e-4
0.610, 2.353e-4
0.611, 2.345e-4
0.612, 2.337e-4
0.613, 2.327e-4
0.614, 2.319e-4
0.615, 2.310e-4
0.616, 2.302e-4
0.617, 2.294e-4
0.618, 2.285e-4
0.619, 2.278e-4
0.620, 2.270e-4
0.621, 2.263e-4
0.622, 2.255e-4
0.623, 2.247e-4
0.624, 2.240e-4
0.625, 2.233e-4
0.626, 2.226e-4
0.627, 2.219e-4
0.628, 2.212e-4
0.629, 2.206e-4
0.630, 2.200e-4
0.631, 2.194e-4
0.632, 2.187e-4
0.633, 2.182e-4
0.634, 2.176e-4
0.635, 2.171e-4
0.636, 2.165e-4
0.637, 2.160e-4
0.638, 2.155e-4
0.639, 2.150e-4
0.640, 2.145e-4
0.641, 2.142e-4
0.642, 2.139e-4
0.643, 2.135e-4
0.644, 2.131e-4
0.645, 2.127e-4
0.646, 2.125e-4
0.647, 2.122e-4
0.648, 2.120e-4
0.649, 2.117e-4
0.650, 2.114e-4
0.651, 2.113e-4
0.652, 2.111e-4
0.653, 2.110e-4
0.654, 2.109e-4
0.655, 2.108e-4
0.656, 2.107e-4
0.657, 2.106e-4
0.658, 2.105e-4
0.659, 2.106e-4
0.660, 2.106e-4
0.661, 2.106e-4
0.662, 2.106e-4
0.663, 2.106e-4
0.664, 2.107e-4
0.665, 2.107e-4
0.666, 2.109e-4
0.667, 2.112e-4
0.668, 2.114e-4
0.669, 2.117e-4
0.670, 2.119e-4
0.671, 2.122e-4
0.672, 2.125e-4
0.673, 2.128e-4
0.674, 2.132e-4
0.675, 2.136e-4
0.676, 2.140e-4
0.677, 2.144e-4
0.678, 2.148e-4
0.679, 2.153e-4
0.680, 2.158e-4
0.681, 2.163e-4
0.682, 2.169e-4
0.683, 2.175e-4
0.684, 2.180e-4
0.685, 2.186e-4
0.686, 2.193e-4
0.687, 2.200e-4
0.688, 2.206e-4
0.689, 2.213e-4
0.690, 2.222e-4
0.691, 2.229e-4
0.692, 2.238e-4
0.693, 2.246e-4
0.694, 2.254e-4
0.695, 2.263e-4
0.696, 2.273e-4
0.697, 2.282e-4
0.698, 2.291e-4
0.699, 2.301e-4
0.700, 2.311e-4
0.701, 2.320e-4
0.702, 2.330e-4
0.703, 2.341e-4
0.704, 2.352e-4
0.705, 2.363e-4
0.706, 2.375e-4
0.707, 2.387e-4
0.708, 2.398e-4
0.709, 2.410e-4
0.710, 2.422e-4
0.711, 2.435e-4
0.712, 2.449e-4
0.713, 2.462e-4
0.714, 2.475e-4
0.715, 2.489e-4
0.716, 2.502e-4
0.717, 2.516e-4
0.718, 2.530e-4
0.719, 2.544e-4
0.720, 2.559e-4
0.721, 2.574e-4
0.722, 2.590e-4
0.723, 2.605e-4
0.724, 2.619e-4
0.725, 2.635e-4
0.726, 2.651e-4
0.727, 2.669e-4
0.728, 2.684e-4
0.729, 2.701e-4
0.730, 2.717e-4
0.731, 2.734e-4
0.732, 2.752e-4
0.733, 2.769e-4
0.734, 2.786e-4
0.735, 2.803e-4
0.736, 2.820e-4
0.737, 2.838e-4
0.738, 2.857e-4
0.739, 2.876e-4
0.740, 2.895e-4
0.741, 2.913e-4
0.742, 2.931e-4
0.743, 2.951e-4
0.744, 2.970e-4
0.745, 2.991e-4
0.746, 3.010e-4
0.747, 3.029e-4
0.748, 3.049e-4
0.749, 3.068e-4
0.750, 3.089e-4
0.751, 3.109e-4
0.752, 3.128e-4
0.753, 3.149e-4
0.754, 3.168e-4
0.755, 3.188e-4
0.756, 3.209e-4
0.757, 3.230e-4
0.758, 3.250e-4
0.759, 3.270e-4
0.760, 3.290e-4
0.761, 3.310e-4
0.762, 3.331e-4
0.763, 3.353e-4
0.764, 3.374e-4
0.765, 3.395e-4
0.766, 3.416e-4
0.767, 3.437e-4
0.768, 3.457e-4
0.769, 3.478e-4
0.770, 3.499e-4
0.771, 3.520e-4
0.772, 3.541e-4
0.773, 3.562e-4
0.774, 3.584e-4
0.775, 3.605e-4
0.776, 3.626e-4
0.777, 3.647e-4
0.778, 3.668e-4
0.779, 3.690e-4
0.780, 3.712e-4
0.781, 3.732e-4
0.782, 3.751e-4
0.783, 3.772e-4
0.784, 3.792e-4
0.785, 3.812e-4
0.786, 3.831e-4
0.787, 3.851e-4
0.788, 3.872e-4
0.789, 3.892e-4
0.790, 3.913e-4
0.791, 3.932e-4
0.792, 3.952e-4
0.793, 3.973e-4
0.794, 3.993e-4
0.795, 4.012e-4
0.796, 4.031e-4
0.797, 4.050e-4
0.798, 4.069e-4
0.799, 4.087e-4
0.800, 4.102e-4
0.799, 4.067e-4
0.798, 4.004e-4
0.797, 3.942e-4
0.796, 3.883e-4
0.795, 3.825e-4
0.794, 3.768e-4
0.793, 3.713e-4
0.792, 3.659e-4
0.791, 3.607e-4
0.790, 3.556e-4
0.789, 3.506e-4
0.788, 3.457e-4
0.787, 3.408e-4
0.786, 3.359e-4
0.785, 3.311e-4
0.784, 3.264e-4
0.783, 3.218e-4
0.782, 3.171e-4
0.781, 3.126e-4
0.780, 3.081e-4
0.779, 3.037e-4
0.778, 2.993e-4
0.777, 2.951e-4
0.776, 2.908e-4
0.775, 2.866e-4
0.774, 2.824e-4
0.773, 2.783e-4
0.772, 2.743e-4
0.771, 2.704e-4
0.770, 2.665e-4
0.769, 2.626e-4
0.768, 2.588e-4
0.767, 2.550e-4
0.766, 2.512e-4
0.765, 2.475e-4
0.764, 2.438e-4
0.763, 2.402e-4
0.762, 2.366e-4
0.761, 2.331e-4
0.760, 2.295e-4
0.759, 2.260e-4
0.758, 2.226e-4
0.757, 2.192e-4
0.756, 2.158e-4
0.755, 2.125e-4
0.754, 2.091e-4
0.753, 2.059e-4
0.752, 2.028e-4
0.751, 1.996e-4
0.750, 1.965e-4
0.749, 1.934e-4
0.748, 1.904e-4
0.747, 1.873e-4
0.746, 1.843e-4
0.745, 1.814e-4
0.744, 1.784e-4
0.743, 1.755e-4
0.742, 1.726e-4
0.741, 1.697e-4
0.740, 1.670e-4
0.739, 1.642e-4
0.738, 1.615e-4
0.737, 1.588e-4
0.736, 1.561e-4
0.735, 1.534e-4
0.734, 1.508e-4
0.733, 1.481e-4
0.732, 1.456e-4
0.731, 1.431e-4
0.730, 1.406e-4
0.729, 1.382e-4
0.728, 1.357e-4
0.727, 1.334e-4
0.726, 1.310e-4
0.725, 1.287e-4
0.724, 1.264e-4
0.723, 1.241e-4
0.722, 1.218e-4
0.721, 1.196e-4
0.720, 1.174e-4
0.719, 1.152e-4
0.718, 1.130e-4
0.717, 1.109e-4
0.716, 1.088e-4
0.715, 1.067e-4
0.714, 1.047e-4
0.713, 1.026e-4
0.712, 1.007e-4
0.711, 9.871e-5
0.710, 9.678e-5
0.709, 9.485e-5
0.708, 9.295e-5
0.707, 9.108e-5
0.706, 8.922e-5
0.705, 8.742e-5
0.704, 8.565e-5
0.703, 8.387e-5
0.702, 8.213e-5
0.701, 8.041e-5
0.700, 7.872e-5
0.699, 7.705e-5
0.698, 7.542e-5
0.697, 7.378e-5
0.696, 7.217e-5
0.695, 7.058e-5
0.694, 6.900e-5
0.693, 6.747e-5
0.692, 6.598e-5
0.691, 6.450e-5
0.690, 6.305e-5
0.689, 6.161e-5
0.688, 6.020e-5
0.687, 5.881e-5
0.686, 5.743e-5
0.685, 5.607e-5
0.684, 5.472e-5
0.683, 5.339e-5
0.682, 5.209e-5
0.681, 5.082e-5
0.680, 4.957e-5
0.679, 4.834e-5
0.678, 4.712e-5
0.677, 4.592e-5
0.676, 4.474e-5
0.675, 4.356e-5
0.674, 4.241e-5
0.673, 4.128e-5
0.672, 4.017e-5
0.671, 3.908e-5
0.670, 3.800e-5
0.669, 3.695e-5
0.668, 3.592e-5
0.667, 3.490e-5
0.666, 3.389e-5
0.665, 3.291e-5
0.664, 3.194e-5
0.663, 3.099e-5
0.662, 3.004e-5
0.661, 2.912e-5
0.660, 2.821e-5
0.659, 2.732e-5
0.658, 2.644e-5
0.657, 2.561e-5
0.656, 2.477e-5
0.655, 2.395e-5
0.654, 2.313e-5
0.653, 2.231e-5
0.652, 2.152e-5
0.651, 2.073e-5
0.650, 1.997e-5
0.649, 1.924e-5
0.648, 1.851e-5
0.647, 1.779e-5
0.646, 1.708e-5
0.645, 1.638e-5
0.644, 1.570e-5
0.643, 1.503e-5
0.642, 1.436e-5
0.641, 1.372e-5
0.640, 1.309e-5
0.639, 1.247e-5
0.638, 1.186e-5
0.637, 1.126e-5
0.636, 1.066e-5
0.635, 1.008e-5
0.634, 9.513e-6
0.633, 8.965e-6
0.632, 8.409e-6
0.631, 7.868e-6
0.630, 7.332e-6
0.629, 6.807e-6
0.628, 6.309e-6
0.627, 5.801e-6
0.626, 5.299e-6
0.625, 4.818e-6
0.624, 4.341e-6
0.623, 3.873e-6
0.622, 3.420e-6
0.621, 2.963e-6
0.620, 2.527e-6
0.619, 2.092e-6
0.618, 1.674e-6
0.617, 1.271e-6
0.616, 8.643e-7
0.615, 4.638e-7
0.614, 5.336e-8
0.613, -3.354e-7
0.612, -7.082e-7
0.611, -1.095e-6
0.610, -1.456e-6
0.609, -1.803e-6
0.608, -2.159e-6
0.607, -2.505e-6
0.606, -2.838e-6
0.605, -3.171e-6
0.604, -3.496e-6
0.603, -3.817e-6
0.602, -4.127e-6
0.601, -4.435e-6
0.600, -4.745e-6
0.599, -5.047e-6
0.598, -5.340e-6
0.597, -5.627e-6
0.596, -5.898e-6
0.595, -6.187e-6
0.594, -6.461e-6
0.593, -6.706e-6
0.592, -6.969e-6
0.591, -7.224e-6
0.590, -7.466e-6
0.589, -7.701e-6
0.588, -7.923e-6
0.587, -8.155e-6
0.586, -8.376e-6
0.585, -8.597e-6
0.584, -8.820e-6
0.583, -9.036e-6
0.582, -9.250e-6
0.581, -9.458e-6
0.580, -9.655e-6
0.579, -9.859e-6
0.578, -1.006e-5
0.577, -1.024e-5
0.576, -1.042e-5
0.575, -1.060e-5
0.574, -1.078e-5
0.573, -1.096e-5
0.572, -1.112e-5
0.571, -1.129e-5
0.570, -1.144e-5
0.569, -1.160e-5
0.568, -1.177e-5
0.567, -1.192e-5
0.566, -1.205e-5
0.565, -1.220e-5
0.564, -1.233e-5
0.563, -1.249e-5
0.562, -1.263e-5
0.561, -1.275e-5
0.560, -1.288e-5
0.559, -1.300e-5
0.558, -1.312e-5
0.557, -1.323e-5
0.556, -1.334e-5
0.555, -1.345e-5
0.554, -1.356e-5
0.553, -1.367e-5
0.552, -1.378e-5
0.551, -1.388e-5
0.550, -1.399e-5
0.549, -1.408e-5
0.548, -1.416e-5
0.547, -1.426e-5
0.546, -1.434e-5
0.545, -1.442e-5
0.544, -1.452e-5
0.543, -1.461e-5
0.542, -1.469e-5
0.541, -1.476e-5
0.540, -1.483e-5
0.539, -1.490e-5
0.538, -1.498e-5
0.537, -1.504e-5
0.536, -1.512e-5
0.535, -1.518e-5
0.534, -1.524e-5
0.533, -1.531e-5
0.532, -1.537e-5
0.531, -1.543e-5
0.530, -1.548e-5
0.529, -1.554e-5
0.528, -1.560e-5
0.527, -1.565e-5
0.526, -1.570e-5
0.525, -1.575e-5
0.524, -1.581e-5
0.523, -1.585e-5
0.522, -1.589e-5
0.521, -1.594e-5
0.520, -1.598e-5
0.519, -1.603e-5
0.518, -1.608e-5
0.517, -1.612e-5
0.516, -1.615e-5
0.515, -1.619e-5
0.514, -1.624e-5
0.513, -1.627e-5
0.512, -1.632e-5
0.511, -1.637e-5
0.510, -1.641e-5
0.509, -1.644e-5
0.508, -1.646e-5
0.507, -1.649e-5
0.506, -1.652e-5
0.505, -1.655e-5
0.504, -1.658e-5
0.503, -1.660e-5
0.502, -1.664e-5
0.501, -1.667e-5
0.500, -1.670e-5
0.499, -1.674e-5
0.498, -1.677e-5
0.497, -1.679e-5
0.496, -1.681e-5
0.495, -1.683e-5
0.494, -1.684e-5
0.493, -1.685e-5
0.492, -1.687e-5
0.491, -1.690e-5
0.490, -1.692e-5
0.489, -1.694e-5
0.488, -1.697e-5
0.487, -1.700e-5
0.486, -1.703e-5
0.485, -1.705e-5
0.484, -1.706e-5
0.483, -1.708e-5
0.482, -1.711e-5
0.481, -1.713e-5
0.480, -1.715e-5
0.479, -1.718e-5
0.478, -1.719e-5
0.477, -1.721e-5
0.476, -1.722e-5
0.475, -1.724e-5
0.474, -1.726e-5
0.473, -1.729e-5
0.472, -1.731e-5
0.471, -1.733e-5
0.470, -1.734e-5
0.469, -1.736e-5
0.468, -1.737e-5
0.467, -1.739e-5
0.466, -1.741e-5
0.465, -1.741e-5
0.464, -1.744e-5
0.463, -1.746e-5
0.462, -1.748e-5
0.461, -1.751e-5
0.460, -1.753e-5
0.459, -1.755e-5
0.458, -1.757e-5
0.457, -1.758e-5
0.456, -1.760e-5
0.455, -1.761e-5
0.454, -1.763e-5
0.453, -1.765e-5
0.452, -1.766e-5
0.451, -1.769e-5
0.450, -1.771e-5
0.449, -1.773e-5
0.448, -1.777e-5
0.447, -1.779e-5
0.446, -1.781e-5
0.445, -1.782e-5
0.444, -1.784e-5
0.443, -1.786e-5
0.442, -1.789e-5
0.441, -1.791e-5
0.440, -1.794e-5
0.439, -1.796e-5
0.438, -1.798e-5
0.437, -1.801e-5
0.436, -1.803e-5
0.435, -1.806e-5
0.434, -1.808e-5
0.433, -1.811e-5
0.432, -1.813e-5
0.431, -1.814e-5
0.430, -1.817e-5
0.429, -1.820e-5
0.428, -1.823e-5
0.427, -1.825e-5
0.426, -1.828e-5
0.425, -1.830e-5
0.424, -1.834e-5
0.423, -1.836e-5
0.422, -1.838e-5
0.421, -1.840e-5
0.420, -1.843e-5
0.419, -1.845e-5
0.418, -1.849e-5
0.417, -1.851e-5
0.416, -1.855e-5
0.415, -1.858e-5
0.414, -1.861e-5
0.413, -1.865e-5
0.412, -1.867e-5
0.411, -1.870e-5
0.410, -1.873e-5
0.409, -1.876e-5
0.408, -1.880e-5
0.407, -1.883e-5
0.406, -1.886e-5
0.405, -1.888e-5
0.404, -1.891e-5
0.403, -1.894e-5
0.402, -1.897e-5
0.401, -1.899e-5
0.400, -1.901e-5
0.399, -1.904e-5
0.398, -1.906e-5
0.397, -1.910e-5
0.396, -1.914e-5
0.395, -1.918e-5
0.394, -1.922e-5
0.393, -1.926e-5
0.392, -1.930e-5
0.391, -1.933e-5
0.390, -1.936e-5
0.389, -1.940e-5
0.388, -1.943e-5
0.387, -1.946e-5
0.386, -1.949e-5
0.385, -1.953e-5
0.384, -1.956e-5
0.383, -1.961e-5
0.382, -1.964e-5
0.381, -1.968e-5
0.380, -1.972e-5
0.379, -1.975e-5
0.378, -1.979e-5
0.377, -1.984e-5
0.376, -1.988e-5
0.375, -1.991e-5
0.374, -1.996e-5
0.373, -1.999e-5
0.372, -2.002e-5
0.371, -2.006e-5
0.370, -2.011e-5
0.369, -2.014e-5
0.368, -2.018e-5
0.367, -2.021e-5
0.366, -2.025e-5
0.365, -2.030e-5
0.364, -2.034e-5
0.363, -2.039e-5
0.362, -2.045e-5
0.361, -2.048e-5
0.360, -2.052e-5
0.359, -2.057e-5
0.358, -2.063e-5
0.357, -2.068e-5
0.356, -2.072e-5
0.355, -2.076e-5
0.354, -2.081e-5
0.353, -2.085e-5
0.352, -2.092e-5
0.351, -2.097e-5
0.350, -2.102e-5
0.349, -2.108e-5
0.348, -2.111e-5
0.347, -2.116e-5
0.346, -2.121e-5
0.345, -2.126e-5
0.344, -2.132e-5
0.343, -2.137e-5
0.342, -2.141e-5
0.341, -2.145e-5
0.340, -2.150e-5
0.339, -2.156e-5
0.338, -2.162e-5
0.337, -2.167e-5
0.336, -2.173e-5
0.335, -2.177e-5
0.334, -2.183e-5
0.333, -2.189e-5
0.332, -2.194e-5
0.331, -2.201e-5
0.330, -2.207e-5
0.329, -2.212e-5
0.328, -2.219e-5
0.327, -2.225e-5
0.326, -2.230e-5
0.325, -2.236e-5
0.324, -2.241e-5
0.323, -2.247e-5
0.322, -2.253e-5
0.321, -2.259e-5
0.320, -2.266e-5
0.319, -2.273e-5
0.318, -2.278e-5
0.317, -2.283e-5
0.316, -2.289e-5
0.315, -2.295e-5
0.314, -2.302e-5
0.313, -2.309e-5
0.312, -2.316e-5
0.311, -2.322e-5
0.310, -2.330e-5
0.309, -2.336e-5
0.308, -2.343e-5
0.307, -2.351e-5
0.306, -2.359e-5
0.305, -2.365e-5
0.304, -2.372e-5
0.303, -2.377e-5
0.302, -2.384e-5
0.301, -2.392e-5
0.300, -2.399e-5
0.299, -2.406e-5
0.298, -2.412e-5
0.297, -2.421e-5
0.296, -2.429e-5
0.295, -2.436e-5
0.294, -2.444e-5
0.293, -2.452e-5
0.292, -2.460e-5
0.291, -2.468e-5
0.290, -2.475e-5
0.289, -2.483e-5
0.288, -2.491e-5
0.287, -2.500e-5
0.286, -2.507e-5
0.285, -2.514e-5
0.284, -2.523e-5
0.283, -2.532e-5
0.282, -2.541e-5
0.281, -2.550e-5
0.280, -2.559e-5
0.279, -2.568e-5
0.278, -2.577e-5
0.277, -2.586e-5
0.276, -2.594e-5
0.275, -2.602e-5
0.274, -2.611e-5
0.273, -2.621e-5
0.272, -2.630e-5
0.271, -2.638e-5
0.270, -2.646e-5
0.269, -2.656e-5
0.268, -2.664e-5
0.267, -2.673e-5
0.266, -2.682e-5
0.265, -2.691e-5
0.264, -2.701e-5
0.263, -2.710e-5
0.262, -2.720e-5
0.261, -2.730e-5
0.260, -2.738e-5
0.259, -2.749e-5
0.258, -2.759e-5
0.257, -2.767e-5
0.256, -2.777e-5
0.255, -2.788e-5
0.254, -2.798e-5
0.253, -2.807e-5
0.252, -2.816e-5
0.251, -2.826e-5
0.250, -2.835e-5
0.249, -2.844e-5
0.248, -2.855e-5
0.247, -2.864e-5
0.246, -2.874e-5
0.245, -2.884e-5
0.244, -2.894e-5
0.243, -2.904e-5
0.242, -2.914e-5
0.241, -2.924e-5
0.240, -2.932e-5
0.239, -2.941e-5
0.238, -2.949e-5
0.237, -2.958e-5
0.236, -2.967e-5
0.235, -2.975e-5
0.234, -2.984e-5
0.233, -2.991e-5
0.232, -2.998e-5
0.231, -3.004e-5
0.230, -3.010e-5
0.229, -3.015e-5
0.228, -3.019e-5
0.227, -3.024e-5
0.226, -3.028e-5
0.225, -3.029e-5
0.224, -3.030e-5
0.223, -3.029e-5
0.222, -3.026e-5
0.221, -3.023e-5
0.220, -3.017e-5
0.219, -3.010e-5
0.218, -3.002e-5
0.217, -2.990e-5
0.216, -2.976e-5
0.215, -2.960e-5
0.214, -2.941e-5
0.213, -2.918e-5
0.212, -2.892e-5
0.211, -2.861e-5
0.210, -2.828e-5
0.209, -2.791e-5
0.208, -2.750e-5
0.207, -2.704e-5
0.206, -2.654e-5
0.205, -2.603e-5
0.204, -2.549e-5
0.203, -2.492e-5
0.202, -2.434e-5
0.201, -2.375e-5
0.200, -2.315e-5
0.199, -2.257e-5
0.198, -2.201e-5
0.197, -2.147e-5
0.196, -2.096e-5
0.195, -2.048e-5
0.194, -2.003e-5
0.193, -1.960e-5
0.192, -1.919e-5
0.191, -1.882e-5
0.190, -1.846e-5
0.189, -1.813e-5
0.188, -1.784e-5
0.187, -1.754e-5
0.186, -1.726e-5
0.185, -1.700e-5
0.184, -1.675e-5
0.183, -1.650e-5
0.182, -1.627e-5
0.181, -1.605e-5
0.180, -1.585e-5
0.179, -1.566e-5
0.178, -1.547e-5
0.177, -1.529e-5
0.176, -1.512e-5
0.175, -1.495e-5
0.174, -1.478e-5
0.173, -1.462e-5
0.172, -1.448e-5
0.171, -1.434e-5
0.170, -1.420e-5
0.169, -1.406e-5
0.168, -1.392e-5
0.167, -1.379e-5
0.166, -1.367e-5
0.165, -1.356e-5
0.164, -1.345e-5
0.163, -1.333e-5
0.162, -1.321e-5
0.161, -1.309e-5
0.160, -1.298e-5
0.159, -1.287e-5
0.158, -1.276e-5
0.157, -1.267e-5
0.156, -1.258e-5
0.155, -1.249e-5
0.154, -1.240e-5
0.153, -1.230e-5
0.152, -1.222e-5
0.151, -1.213e-5
0.150, -1.204e-5
0.149, -1.196e-5
0.148, -1.187e-5
0.147, -1.180e-5
0.146, -1.172e-5
0.145, -1.164e-5
0.144, -1.157e-5
0.143, -1.149e-5
0.142, -1.141e-5
0.141, -1.133e-5
0.140, -1.126e-5
0.139, -1.119e-5
0.138, -1.113e-5
0.137, -1.106e-5
0.136, -1.100e-5
0.135, -1.094e-5
0.134, -1.088e-5
0.133, -1.081e-5
0.132, -1.075e-5
0.131, -1.069e-5
0.130, -1.063e-5
0.129, -1.056e-5
0.128, -1.049e-5
0.127, -1.044e-5
0.126, -1.040e-5
0.125, -1.034e-5
0.124, -1.029e-5
0.123, -1.024e-5
0.122, -1.018e-5
0.121, -1.012e-5
0.120, -1.007e-5
0.119, -1.001e-5
0.118, -9.971e-6
0.117, -9.924e-6
0.116, -9.876e-6
0.115, -9.831e-6
0.114, -9.788e-6
0.113, -9.741e-6
0.112, -9.704e-6
0.111, -9.656e-6
0.110, -9.605e-6
0.109, -9.562e-6
0.108, -9.515e-6
0.107, -9.467e-6
0.106, -9.423e-6
0.105, -9.377e-6
0.104, -9.342e-6
0.103, -9.307e-6
0.102, -9.281e-6
0.101, -9.244e-6
0.100, -9.195e-6
0.099, -9.153e-6
0.098, -9.112e-6
0.097, -9.072e-6
0.096, -9.029e-6
0.095, -8.990e-6
0.094, -8.954e-6
0.093, -8.903e-6
0.092, -8.867e-6
0.091, -8.840e-6
0.090, -8.805e-6
0.089, -8.767e-6
0.088, -8.735e-6
0.087, -8.703e-6
0.086, -8.668e-6
0.085, -8.642e-6
0.084, -8.611e-6
0.083, -8.570e-6
0.082, -8.537e-6
0.081, -8.505e-6
0.080, -8.467e-6
0.079, -8.425e-6
0.078, -8.396e-6
0.077, -8.370e-6
0.076, -8.339e-6
0.075, -8.305e-6
0.074, -8.281e-6
0.073, -8.252e-6
0.072, -8.221e-6
0.071, -8.187e-6
0.070, -8.159e-6
0.069, -8.129e-6
0.068, -8.109e-6
0.067, -8.079e-6
0.066, -8.050e-6
0.065, -8.014e-6
0.064, -7.985e-6
0.063, -7.958e-6
0.062, -7.940e-6
0.061, -7.918e-6
0.060, -7.895e-6
0.059, -7.863e-6
0.058, -7.835e-6
0.057, -7.811e-6
0.056, -7.788e-6
0.055, -7.763e-6
0.054, -7.736e-6
0.053, -7.711e-6
0.052, -7.686e-6
0.051, -7.664e-6
0.050, -7.642e-6
0.049, -7.617e-6
0.048, -7.597e-6
0.047, -7.569e-6
0.046, -7.544e-6
0.045, -7.518e-6
0.044, -7.496e-6
0.043, -7.471e-6
0.042, -7.458e-6
0.041, -7.442e-6
0.040, -7.415e-6
0.039, -7.387e-6
0.038, -7.369e-6
0.037, -7.350e-6
0.036, -7.326e-6
0.035, -7.305e-6
0.034, -7.282e-6
0.033, -7.261e-6
0.032, -7.242e-6
0.031, -7.216e-6
0.030, -7.190e-6
0.029, -7.168e-6
0.028, -7.155e-6
0.027, -7.137e-6
0.026, -7.112e-6
0.025, -7.089e-6
0.024, -7.071e-6
0.023, -7.057e-6
0.022, -7.027e-6
0.021, -7.005e-6
0.020, -6.981e-6
0.019, -6.964e-6
0.018, -6.950e-6
0.017, -6.927e-6
0.016, -6.910e-6
0.015, -6.893e-6
0.014, -6.869e-6
0.013, -6.848e-6
0.012, -6.829e-6
0.011, -6.813e-6
0.010, -6.797e-6
0.009, -6.782e-6
0.008, -6.764e-6
0.007, -6.739e-6
0.006, -6.724e-6
0.005, -6.704e-6
0.004, -6.686e-6
0.003, -6.669e-6
0.002, -6.655e-6
0.001, -6.641e-6
0.000, -6.576e-6
0.001, -6.372e-6
0.002, -6.247e-6
0.003, -6.147e-6
0.004, -6.062e-6
0.005, -5.981e-6
0.006, -5.908e-6
0.007, -5.839e-6
0.008, -5.781e-6
0.009, -5.722e-6
0.010, -5.661e-6
0.011, -5.598e-6
0.012, -5.534e-6
0.013, -5.477e-6
0.014, -5.433e-6
0.015, -5.385e-6
0.016, -5.336e-6
0.017, -5.286e-6
0.018, -5.245e-6
0.019, -5.205e-6
0.020, -5.166e-6
0.021, -5.116e-6
0.022, -5.066e-6
0.023, -5.017e-6
0.024, -4.973e-6
0.025, -4.928e-6
0.026, -4.880e-6
0.027, -4.839e-6
0.028, -4.798e-6
0.029, -4.765e-6
0.030, -4.734e-6
0.031, -4.691e-6
0.032, -4.648e-6
0.033, -4.608e-6
0.034, -4.574e-6
0.035, -4.541e-6
0.036, -4.507e-6
0.037, -4.477e-6
0.038, -4.435e-6
0.039, -4.397e-6
0.040, -4.359e-6
0.041, -4.328e-6
0.042, -4.294e-6
0.043, -4.260e-6
0.044, -4.225e-6
0.045, -4.196e-6
0.046, -4.160e-6
0.047, -4.132e-6
0.048, -4.099e-6
0.049, -4.067e-6
0.050, -4.038e-6
0.051, -4.004e-6
0.052, -3.973e-6
0.053, -3.943e-6
0.054, -3.914e-6
0.055, -3.887e-6
0.056, -3.864e-6
0.057, -3.834e-6
0.058, -3.800e-6
0.059, -3.767e-6
0.060, -3.732e-6
0.061, -3.704e-6
0.062, -3.675e-6
0.063, -3.648e-6
0.064, -3.616e-6
0.065, -3.590e-6
0.066, -3.560e-6
0.067, -3.528e-6
0.068, -3.501e-6
0.069, -3.480e-6
0.070, -3.453e-6
0.071, -3.424e-6
0.072, -3.398e-6
0.073, -3.374e-6
0.074, -3.351e-6
0.075, -3.329e-6
0.076, -3.300e-6
0.077, -3.274e-6
0.078, -3.247e-6
0.079, -3.219e-6
0.080, -3.193e-6
0.081, -3.171e-6
0.082, -3.150e-6
0.083, -3.121e-6
0.084, -3.093e-6
0.085, -3.071e-6
0.086, -3.050e-6
0.087, -3.029e-6
0.088, -3.007e-6
0.089, -2.983e-6
0.090, -2.958e-6
0.091, -2.935e-6
0.092, -2.913e-6
0.093, -2.889e-6
0.094, -2.866e-6
0.095, -2.843e-6
0.096, -2.819e-6
0.097, -2.799e-6
0.098, -2.780e-6
0.099, -2.762e-6
0.100, -2.739e-6
0.101, -2.718e-6
0.102, -2.690e-6
0.103, -2.665e-6
0.104, -2.645e-6
0.105, -2.623e-6
0.106, -2.604e-6
0.107, -2.585e-6
0.108, -2.564e-6
0.109, -2.544e-6
0.110, -2.523e-6
0.111, -2.501e-6
0.112, -2.481e-6
0.113, -2.465e-6
0.114, -2.441e-6
0.115, -2.418e-6
0.116, -2.396e-6
0.117, -2.376e-6
0.118, -2.354e-6
0.119, -2.330e-6
0.120, -2.307e-6
0.121, -2.288e-6
0.122, -2.268e-6
0.123, -2.249e-6
0.124, -2.232e-6
0.125, -2.209e-6
0.126, -2.189e-6
0.127, -2.175e-6
0.128, -2.153e-6
0.129, -2.133e-6
0.130, -2.125e-6
0.131, -2.106e-6
0.132, -2.086e-6
0.133, -2.061e-6
0.134, -2.037e-6
0.135, -2.020e-6
0.136, -1.998e-6
0.137, -1.975e-6
0.138, -1.959e-6
0.139, -1.940e-6
0.140, -1.920e-6
0.141, -1.903e-6
0.142, -1.883e-6
0.143, -1.864e-6
0.144, -1.845e-6
0.145, -1.825e-6
0.146, -1.804e-6
0.147, -1.780e-6
0.148, -1.758e-6
0.149, -1.739e-6
0.150, -1.718e-6
0.151, -1.699e-6
0.152, -1.679e-6
0.153, -1.657e-6
0.154, -1.635e-6
0.155, -1.613e-6
0.156, -1.592e-6
0.157, -1.573e-6
0.158, -1.549e-6
0.159, -1.528e-6
0.160, -1.505e-6
0.161, -1.480e-6
0.162, -1.459e-6
0.163, -1.439e-6
0.164, -1.417e-6
0.165, -1.393e-6
0.166, -1.367e-6
0.167, -1.344e-6
0.168, -1.320e-6
0.169, -1.298e-6
0.170, -1.275e-6
0.171, -1.250e-6
0.172, -1.226e-6
0.173, -1.198e-6
0.174, -1.172e-6
0.175, -1.148e-6
0.176, -1.119e-6
0.177, -1.093e-6
0.178, -1.069e-6
0.179, -1.039e-6
0.180, -1.006e-6
0.181, -9.793e-7
0.182, -9.494e-7
0.183, -9.198e-7
0.184, -8.844e-7
0.185, -8.482e-7
0.186, -8.114e-7
0.187, -7.759e-7
0.188, -7.410e-7
0.189, -7.027e-7
0.190, -6.611e-7
0.191, -6.210e-7
0.192, -5.785e-7
0.193, -5.337e-7
0.194, -4.888e-7
0.195, -4.406e-7
0.196, -3.918e-7
0.197, -3.414e-7
0.198, -2.852e-7
0.199, -2.280e-7
0.200, -1.697e-7
0.201, -1.012e-7
0.202, -2.843e-8
0.203, 4.982e-8
0.204, 1.330e-7
0.205, 2.263e-7
0.206, 3.270e-7
0.207, 4.351e-7
0.208, 5.502e-7
0.209, 6.769e-7
0.210, 8.111e-7
0.211, 9.672e-7
0.212, 1.137e-6
0.213, 1.319e-6
0.214, 1.524e-6
0.215, 1.753e-6
0.216, 2.000e-6
0.217, 2.273e-6
0.218, 2.576e-6
0.219, 2.899e-6
0.220, 3.251e-6
0.221, 3.621e-6
0.222, 4.028e-6
0.223, 4.457e-6
0.224, 4.916e-6
0.225, 5.400e-6
0.226, 5.899e-6
0.227, 6.429e-6
0.228, 6.976e-6
0.229, 7.548e-6
0.230, 8.132e-6
0.231, 8.729e-6
0.232, 9.339e-6
0.233, 9.963e-6
0.234, 1.059e-5
0.235, 1.123e-5
0.236, 1.187e-5
0.237, 1.252e-5
0.238, 1.317e-5
0.239, 1.381e-5
0.240, 1.445e-5
0.241, 1.509e-5
0.242, 1.572e-5
0.243, 1.634e-5
0.244, 1.696e-5
0.245, 1.756e-5
0.246, 1.815e-5
0.247, 1.873e-5
0.248, 1.929e-5
0.249, 1.984e-5
0.250, 2.037e-5
0.251, 2.089e-5
0.252, 2.138e-5
0.253, 2.186e-5
0.254, 2.233e-5
0.255, 2.278e-5
0.256, 2.321e-5
0.257, 2.362e-5
0.258, 2.399e-5
0.259, 2.435e-5
0.260, 2.467e-5
0.261, 2.496e-5
0.262, 2.522e-5
0.263, 2.546e-5
0.264, 2.568e-5
0.265, 2.587e-5
0.266, 2.602e-5
0.267, 2.615e-5
0.268, 2.626e-5
0.269, 2.636e-5
0.270, 2.644e-5
0.271, 2.648e-5
0.272, 2.651e-5
0.273, 2.653e-5
0.274, 2.654e-5
0.275, 2.654e-5
0.276, 2.652e-5
0.277, 2.649e-5
0.278, 2.646e-5
0.279, 2.642e-5
0.280, 2.637e-5
0.281, 2.631e-5
0.282, 2.625e-5
0.283, 2.620e-5
0.284, 2.614e-5
0.285, 2.608e-5
0.286, 2.603e-5
0.287, 2.597e-5
0.288, 2.592e-5
0.289, 2.587e-5
0.290, 2.583e-5
0.291, 2.578e-5
0.292, 2.574e-5
0.293, 2.571e-5
0.294, 2.569e-5
0.295, 2.568e-5
0.296, 2.567e-5
0.297, 2.566e-5
0.298, 2.566e-5
0.299, 2.566e-5
0.300, 2.567e-5
0.301, 2.568e-5
0.302, 2.569e-5
0.303, 2.570e-5
0.304, 2.573e-5
0.305, 2.574e-5
0.306, 2.576e-5
0.307, 2.580e-5
0.308, 2.584e-5
0.309, 2.586e-5
0.310, 2.589e-5
0.311, 2.592e-5
0.312, 2.596e-5
0.313, 2.600e-5
0.314, 2.605e-5
0.315, 2.610e-5
0.316, 2.615e-5
0.317, 2.620e-5
0.318, 2.627e-5
0.319, 2.633e-5
0.320, 2.640e-5
0.321, 2.648e-5
0.322, 2.655e-5
0.323, 2.664e-5
0.324, 2.672e-5
0.325, 2.680e-5
0.326, 2.691e-5
0.327, 2.701e-5
0.328, 2.711e-5
0.329, 2.720e-5
0.330, 2.731e-5
0.331, 2.741e-5
0.332, 2.752e-5
0.333, 2.763e-5
0.334, 2.774e-5
0.335, 2.784e-5
0.336, 2.795e-5
0.337, 2.807e-5
0.338, 2.818e-5
0.339, 2.830e-5
0.340, 2.842e-5
0.341, 2.854e-5
0.342, 2.867e-5
0.343, 2.878e-5
0.344, 2.891e-5
0.345, 2.904e-5
0.346, 2.917e-5
0.347, 2.930e-5
0.348, 2.943e-5
0.349, 2.958e-5
0.350, 2.972e-5
0.351, 2.985e-5
0.352, 2.998e-5
0.353, 3.013e-5
0.354, 3.027e-5
0.355, 3.042e-5
0.356, 3.057e-5
0.357, 3.070e-5
0.358, 3.085e-5
0.359, 3.100e-5
0.360, 3.114e-5
0.361, 3.128e-5
0.362, 3.142e-5
0.363, 3.158e-5
0.364, 3.172e-5
0.365, 3.188e-5
0.366, 3.202e-5
0.367, 3.216e-5
0.368, 3.231e-5
0.369, 3.246e-5
0.370, 3.261e-5
0.371, 3.277e-5
0.372, 3.294e-5
0.373, 3.308e-5
0.374, 3.322e-5
0.375, 3.336e-5
0.376, 3.351e-5
0.377, 3.366e-5
0.378, 3.382e-5
0.379, 3.397e-5
0.380, 3.414e-5
0.381, 3.428e-5
0.382, 3.442e-5
0.383, 3.456e-5
0.384, 3.470e-5
0.385, 3.485e-5
0.386, 3.498e-5
0.387, 3.512e-5
0.388, 3.524e-5
0.389, 3.536e-5
0.390, 3.549e-5
0.391, 3.563e-5
0.392, 3.577e-5
0.393, 3.591e-5
0.394, 3.603e-5
0.395, 3.615e-5
0.396, 3.627e-5
0.397, 3.639e-5
0.398, 3.652e-5
0.399, 3.665e-5
0.400, 3.678e-5
0.401, 3.691e-5
0.402, 3.701e-5
0.403, 3.714e-5
0.404, 3.728e-5
0.405, 3.740e-5
0.406, 3.752e-5
0.407, 3.763e-5
0.408, 3.775e-5
0.409, 3.786e-5
0.410, 3.799e-5
0.411, 3.809e-5
0.412, 3.819e-5
0.413, 3.829e-5
0.414, 3.840e-5
0.415, 3.850e-5
0.416, 3.861e-5
0.417, 3.872e-5
0.418, 3.881e-5
0.419, 3.891e-5
0.420, 3.901e-5
0.421, 3.909e-5
0.422, 3.919e-5
0.423, 3.928e-5
0.424, 3.939e-5
0.425, 3.951e-5
0.426, 3.962e-5
0.427, 3.973e-5
0.428, 3.982e-5
0.429, 3.990e-5
0.430, 3.998e-5
0.431, 4.007e-5
0.432, 4.015e-5
0.433, 4.023e-5
0.434, 4.030e-5
0.435, 4.039e-5
0.436, 4.048e-5
0.437, 4.058e-5
0.438, 4.066e-5
0.439, 4.073e-5
0.440, 4.080e-5
0.441, 4.088e-5
0.442, 4.096e-5
0.443, 4.104e-5
0.444, 4.112e-5
0.445, 4.121e-5
0.446, 4.129e-5
0.447, 4.137e-5
0.448, 4.146e-5
0.449, 4.156e-5
0.450, 4.165e-5
0.451, 4.174e-5
0.452, 4.181e-5
0.453, 4.187e-5
0.454, 4.194e-5
0.455, 4.203e-5
0.456, 4.213e-5
0.457, 4.219e-5
0.458, 4.227e-5
0.459, 4.236e-5
0.460, 4.244e-5
0.461, 4.252e-5
0.462, 4.261e-5
0.463, 4.268e-5
0.464, 4.274e-5
0.465, 4.282e-5
0.466, 4.291e-5
0.467, 4.299e-5
0.468, 4.310e-5
0.469, 4.320e-5
0.470, 4.327e-5
0.471, 4.335e-5
0.472, 4.343e-5
0.473, 4.353e-5
0.474, 4.365e-5
0.475, 4.376e-5
0.476, 4.385e-5
0.477, 4.393e-5
0.478, 4.400e-5
0.479, 4.410e-5
0.480, 4.421e-5
0.481, 4.432e-5
0.482, 4.441e-5
0.483, 4.452e-5
0.484, 4.464e-5
0.485, 4.474e-5
0.486, 4.484e-5
0.487, 4.495e-5
0.488, 4.507e-5
0.489, 4.517e-5
0.490, 4.527e-5
0.491, 4.540e-5
0.492, 4.553e-5
0.493, 4.565e-5
0.494, 4.577e-5
0.495, 4.588e-5
0.496, 4.603e-5
0.497, 4.616e-5
0.498, 4.626e-5
0.499, 4.639e-5
0.500, 4.651e-5
0.501, 4.662e-5
0.502, 4.676e-5
0.503, 4.688e-5
0.504, 4.702e-5
0.505, 4.716e-5
0.506, 4.731e-5
0.507, 4.745e-5
0.508, 4.757e-5
0.509, 4.771e-5
0.510, 4.785e-5
0.511, 4.799e-5
0.512, 4.816e-5
0.513, 4.833e-5
0.514, 4.848e-5
0.515, 4.864e-5
0.516, 4.879e-5
0.517, 4.893e-5
0.518, 4.909e-5
0.519, 4.925e-5
0.520, 4.940e-5
0.521, 4.957e-5
0.522, 4.974e-5
0.523, 4.991e-5
0.524, 5.006e-5
0.525, 5.026e-5
0.526, 5.045e-5
0.527, 5.063e-5
0.528, 5.082e-5
0.529, 5.100e-5
0.530, 5.118e-5
0.531, 5.139e-5
0.532, 5.159e-5
0.533, 5.178e-5
0.534, 5.200e-5
0.535, 5.220e-5
0.536, 5.241e-5
0.537, 5.261e-5
0.538, 5.282e-5
0.539, 5.303e-5
0.540, 5.324e-5
0.541, 5.346e-5
0.542, 5.370e-5
0.543, 5.395e-5
0.544, 5.419e-5
0.545, 5.442e-5
0.546, 5.466e-5
0.547, 5.489e-5
0.548, 5.511e-5
0.549, 5.535e-5
0.550, 5.561e-5
0.551, 5.588e-5
0.552, 5.617e-5
0.553, 5.643e-5
0.554, 5.670e-5
0.555, 5.697e-5
0.556, 5.725e-5
0.557, 5.754e-5
0.558, 5.782e-5
0.559, 5.811e-5
0.560, 5.839e-5
0.561, 5.869e-5
0.562, 5.899e-5
0.563, 5.928e-5
0.564, 5.956e-5
0.565, 5.986e-5
0.566, 6.016e-5
0.567, 6.045e-5
0.568, 6.078e-5
0.569, 6.109e-5
0.570, 6.143e-5
0.571, 6.175e-5
0.572, 6.206e-5
0.573, 6.238e-5
0.574, 6.271e-5
0.575, 6.304e-5
0.576, 6.336e-5
0.577, 6.370e-5
0.578, 6.403e-5
0.579, 6.436e-5
0.580, 6.472e-5
0.581, 6.505e-5
0.582, 6.542e-5
0.583, 6.581e-5
0.584, 6.618e-5
0.585, 6.653e-5
0.586, 6.688e-5
0.587, 6.725e-5
0.588, 6.763e-5
0.589, 6.802e-5
0.590, 6.841e-5
0.591, 6.877e-5
0.592, 6.915e-5
0.593, 6.953e-5
0.594, 6.989e-5
0.595, 7.028e-5
0.596, 7.070e-5
0.597, 7.111e-5
0.598, 7.152e-5
0.599, 7.190e-5
0.600, 7.229e-5
0.601, 7.268e-5
0.602, 7.309e-5
0.603, 7.352e-5
0.604, 7.393e-5
0.605, 7.432e-5
0.606, 7.475e-5
0.607, 7.518e-5
0.608, 7.561e-5
0.609, 7.601e-5
0.610, 7.642e-5
0.611, 7.684e-5
0.612, 7.725e-5
0.613, 7.768e-5
0.614, 7.811e-5
0.615, 7.854e-5
0.616, 7.899e-5
0.617, 7.942e-5
0.618, 7.986e-5
0.619, 8.030e-5
0.620, 8.075e-5
0.621, 8.119e-5
0.622, 8.162e-5
0.623, 8.203e-5
0.624, 8.245e-5
0.625, 8.291e-5
0.626, 8.334e-5
0.627, 8.378e-5
0.628, 8.423e-5
0.629, 8.468e-5
0.630, 8.515e-5
0.631, 8.562e-5
0.632, 8.611e-5
0.633, 8.658e-5
0.634, 8.702e-5
0.635, 8.747e-5
0.636, 8.794e-5
0.637, 8.841e-5
0.638, 8.889e-5
0.639, 8.936e-5
0.640, 8.988e-5
0.641, 9.039e-5
0.642, 9.088e-5
0.643, 9.139e-5
0.644, 9.189e-5
0.645, 9.243e-5
0.646, 9.296e-5
0.647, 9.345e-5
0.648, 9.400e-5
0.649, 9.457e-5
0.650, 9.513e-5
0.651, 9.570e-5
0.652, 9.625e-5
0.653, 9.685e-5
0.654, 9.746e-5
0.655, 9.804e-5
0.656, 9.864e-5
0.657, 9.927e-5
0.658, 9.988e-5
0.659, 1.005e-4
0.660, 1.011e-4
0.661, 1.018e-4
0.662, 1.024e-4
0.663, 1.030e-4
0.664, 1.037e-4
0.665, 1.044e-4
0.666, 1.051e-4
0.667, 1.058e-4
0.668, 1.065e-4
0.669, 1.072e-4
0.670, 1.079e-4
0.671, 1.086e-4
0.672, 1.094e-4
0.673, 1.101e-4
0.674, 1.109e-4
0.675, 1.117e-4
0.676, 1.124e-4
0.677, 1.132e-4
0.678, 1.140e-4
0.679, 1.148e-4
0.680, 1.156e-4
0.681, 1.164e-4
0.682, 1.173e-4
0.683, 1.181e-4
0.684, 1.190e-4
0.685, 1.199e-4
0.686, 1.208e-4
0.687, 1.217e-4
0.688, 1.226e-4
0.689, 1.235e-4
0.690, 1.244e-4
0.691, 1.253e-4
0.692, 1.263e-4
0.693, 1.273e-4
0.694, 1.283e-4
0.695, 1.293e-4
0.696, 1.303e-4
0.697, 1.313e-4
0.698, 1.324e-4
0.699, 1.334e-4
0.700, 1.345e-4
0.701, 1.356e-4
0.702, 1.367e-4
0.703, 1.378e-4
0.704, 1.389e-4
0.705, 1.401e-4
0.706, 1.412e-4
0.707, 1.424e-4
0.708, 1.436e-4
0.709, 1.449e-4
0.710, 1.461e-4
0.711, 1.473e-4
0.712, 1.486e-4
0.713, 1.498e-4
0.714, 1.510e-4
0.715, 1.524e-4
0.716, 1.537e-4
0.717, 1.551e-4
0.718, 1.565e-4
0.719, 1.579e-4
0.720, 1.594e-4
0.721, 1.608e-4
0.722, 1.622e-4
0.723, 1.637e-4
0.724, 1.652e-4
0.725, 1.667e-4
0.726, 1.682e-4
0.727, 1.697e-4
0.728, 1.712e-4
0.729, 1.728e-4
0.730, 1.743e-4
0.731, 1.759e-4
0.732, 1.775e-4
0.733, 1.791e-4
0.734, 1.807e-4
0.735, 1.823e-4
0.736, 1.840e-4
0.737, 1.856e-4
0.738, 1.873e-4
0.739, 1.890e-4
0.740, 1.907e-4
0.741, 1.925e-4
0.742, 1.942e-4
0.743, 1.959e-4
0.744, 1.976e-4
0.745, 1.994e-4
0.746, 2.012e-4
0.747, 2.030e-4
0.748, 2.049e-4
0.749, 2.066e-4
0.750, 2.084e-4
0.751, 2.103e-4
0.752, 2.121e-4
0.753, 2.139e-4
0.754, 2.157e-4
0.755, 2.175e-4
0.756, 2.194e-4
0.757, 2.213e-4
0.758, 2.232e-4
0.759, 2.251e-4
0.760, 2.269e-4
0.761, 2.287e-4
0.762, 2.305e-4
0.763, 2.324e-4
0.764, 2.343e-4
0.765, 2.363e-4
0.766, 2.382e-4
0.767, 2.402e-4
0.768, 2.421e-4
0.769, 2.440e-4
0.770, 2.460e-4
0.771, 2.479e-4
0.772, 2.498e-4
0.773, 2.517e-4
0.774, 2.536e-4
0.775, 2.556e-4
0.776, 2.574e-4
0.777, 2.594e-4
0.778, 2.612e-4
0.779, 2.631e-4
0.780, 2.649e-4
0.781, 2.669e-4
0.782, 2.689e-4
0.783, 2.708e-4
0.784, 2.727e-4
0.785, 2.747e-4
0.786, 2.766e-4
0.787, 2.786e-4
0.788, 2.806e-4
0.789, 2.827e-4
0.790, 2.847e-4
0.791, 2.867e-4
0.792, 2.887e-4
0.793, 2.907e-4
0.794, 2.926e-4
0.795, 2.945e-4
0.796, 2.964e-4
0.797, 2.983e-4
0.798, 3.003e-4
0.799, 3.022e-4
0.800, 3.037e-4
0.799, 3.011e-4
0.798, 2.962e-4
0.797, 2.912e-4
0.796, 2.863e-4
0.795, 2.815e-4
0.794, 2.770e-4
0.793, 2.725e-4
0.792, 2.681e-4
0.791, 2.638e-4
0.790, 2.595e-4
0.789, 2.554e-4
0.788, 2.514e-4
0.787, 2.473e-4
0.786, 2.433e-4
0.785, 2.395e-4
0.784, 2.357e-4
0.783, 2.319e-4
0.782, 2.282e-4
0.781, 2.245e-4
0.780, 2.210e-4
0.779, 2.175e-4
0.778, 2.141e-4
0.777, 2.107e-4
0.776, 2.074e-4
0.775, 2.040e-4
0.774, 2.007e-4
0.773, 1.973e-4
0.772, 1.941e-4
0.771, 1.910e-4
0.770, 1.879e-4
0.769, 1.848e-4
0.768, 1.817e-4
0.767, 1.787e-4
0.766, 1.759e-4
0.765, 1.729e-4
0.764, 1.701e-4
0.763, 1.672e-4
0.762, 1.645e-4
0.761, 1.617e-4
0.760, 1.590e-4
0.759, 1.562e-4
0.758, 1.536e-4
0.757, 1.510e-4
0.756, 1.485e-4
0.755, 1.459e-4
0.754, 1.433e-4
0.753, 1.408e-4
0.752, 1.384e-4
0.751, 1.360e-4
0.750, 1.335e-4
0.749, 1.312e-4
0.748, 1.288e-4
0.747, 1.265e-4
0.746, 1.242e-4
0.745, 1.219e-4
0.744, 1.197e-4
0.743, 1.175e-4
0.742, 1.154e-4
0.741, 1.133e-4
0.740, 1.111e-4
0.739, 1.090e-4
0.738, 1.069e-4
0.737, 1.049e-4
0.736, 1.029e-4
0.735, 1.009e-4
0.734, 9.895e-5
0.733, 9.698e-5
0.732, 9.510e-5
0.731, 9.322e-5
0.730, 9.141e-5
0.729, 8.958e-5
0.728, 8.776e-5
0.727, 8.597e-5
0.726, 8.421e-5
0.725, 8.250e-5
0.724, 8.082e-5
0.723, 7.912e-5
0.722, 7.747e-5
0.721, 7.584e-5
0.720, 7.422e-5
0.719, 7.265e-5
0.718, 7.109e-5
0.717, 6.953e-5
0.716, 6.802e-5
0.715, 6.654e-5
0.714, 6.505e-5
0.713, 6.360e-5
0.712, 6.216e-5
0.711, 6.077e-5
0.710, 5.938e-5
0.709, 5.800e-5
0.708, 5.668e-5
0.707, 5.539e-5
0.706, 5.409e-5
0.705, 5.283e-5
0.704, 5.159e-5
0.703, 5.038e-5
0.702, 4.918e-5
0.701, 4.798e-5
0.700, 4.681e-5
0.699, 4.565e-5
0.698, 4.452e-5
0.697, 4.340e-5
0.696, 4.229e-5
0.695, 4.121e-5
0.694, 4.014e-5
0.693, 3.908e-5
0.692, 3.804e-5
0.691, 3.702e-5
0.690, 3.602e-5
0.689, 3.504e-5
0.688, 3.406e-5
0.687, 3.311e-5
0.686, 3.219e-5
0.685, 3.127e-5
0.684, 3.035e-5
0.683, 2.946e-5
0.682, 2.858e-5
0.681, 2.772e-5
0.680, 2.686e-5
0.679, 2.603e-5
0.678, 2.521e-5
0.677, 2.441e-5
0.676, 2.362e-5
0.675, 2.282e-5
0.674, 2.206e-5
0.673, 2.132e-5
0.672, 2.058e-5
0.671, 1.985e-5
0.670, 1.915e-5
0.669, 1.845e-5
0.668, 1.776e-5
0.667, 1.708e-5
0.666, 1.641e-5
0.665, 1.575e-5
0.664, 1.511e-5
0.663, 1.448e-5
0.662, 1.386e-5
0.661, 1.323e-5
0.660, 1.264e-5
0.659, 1.204e-5
0.658, 1.146e-5
0.657, 1.090e-5
0.656, 1.034e-5
0.655, 9.791e-6
0.654, 9.251e-6
0.653, 8.718e-6
0.652, 8.189e-6
0.651, 7.671e-6
0.650, 7.161e-6
0.649, 6.657e-6
0.648, 6.160e-6
0.647, 5.677e-6
0.646, 5.201e-6
0.645, 4.726e-6
0.644, 4.270e-6
0.643, 3.809e-6
0.642, 3.368e-6
0.641, 2.932e-6
0.640, 2.489e-6
0.639, 2.055e-6
0.638, 1.645e-6
0.637, 1.239e-6
0.636, 8.381e-7
0.635, 4.373e-7
0.634, 3.704e-8
0.633, -3.529e-7
0.632, -7.467e-7
0.631, -1.117e-6
0.630, -1.482e-6
0.629, -1.854e-6
0.628, -2.202e-6
0.627, -2.557e-6
0.626, -2.901e-6
0.625, -3.236e-6
0.624, -3.573e-6
0.623, -3.897e-6
0.622, -4.216e-6
0.621, -4.543e-6
0.620, -4.862e-6
0.619, -5.167e-6
0.618, -5.472e-6
0.617, -5.770e-6
0.616, -6.068e-6
0.615, -6.351e-6
0.614, -6.639e-6
0.613, -6.921e-6
0.612, -7.189e-6
0.611, -7.465e-6
0.610, -7.735e-6
0.609, -7.984e-6
0.608, -8.249e-6
0.607, -8.501e-6
0.606, -8.749e-6
0.605, -8.997e-6
0.604, -9.227e-6
0.603, -9.466e-6
0.602, -9.699e-6
0.601, -9.928e-6
0.600, -1.015e-5
0.599, -1.037e-5
0.598, -1.059e-5
0.597, -1.080e-5
0.596, -1.100e-5
0.595, -1.122e-5
0.594, -1.142e-5
0.593, -1.161e-5
0.592, -1.181e-5
0.591, -1.200e-5
0.590, -1.219e-5
0.589, -1.237e-5
0.588, -1.255e-5
0.587, -1.273e-5
0.586, -1.291e-5
0.585, -1.307e-5
0.584, -1.323e-5
0.583, -1.340e-5
0.582, -1.356e-5
0.581, -1.373e-5
0.580, -1.388e-5
0.579, -1.404e-5
0.578, -1.419e-5
0.577, -1.433e-5
0.576, -1.448e-5
0.575, -1.461e-5
0.574, -1.473e-5
0.573, -1.487e-5
0.572, -1.502e-5
0.571, -1.514e-5
0.570, -1.525e-5
0.569, -1.537e-5
0.568, -1.550e-5
0.567, -1.561e-5
0.566, -1.573e-5
0.565, -1.584e-5
0.564, -1.594e-5
0.563, -1.605e-5
0.562, -1.616e-5
0.561, -1.625e-5
0.560, -1.635e-5
0.559, -1.644e-5
0.558, -1.652e-5
0.557, -1.660e-5
0.556, -1.668e-5
0.555, -1.677e-5
0.554, -1.686e-5
0.553, -1.694e-5
0.552, -1.702e-5
0.551, -1.709e-5
0.550, -1.717e-5
0.549, -1.726e-5
0.548, -1.733e-5
0.547, -1.741e-5
0.546, -1.748e-5
0.545, -1.754e-5
0.544, -1.761e-5
0.543, -1.768e-5
0.542, -1.774e-5
0.541, -1.779e-5
0.540, -1.784e-5
0.539, -1.790e-5
0.538, -1.795e-5
0.537, -1.800e-5
0.536, -1.807e-5
0.535, -1.811e-5
0.534, -1.815e-5
0.533, -1.819e-5
0.532, -1.822e-5
0.531, -1.827e-5
0.530, -1.830e-5
0.529, -1.834e-5
0.528, -1.838e-5
0.527, -1.841e-5
0.526, -1.844e-5
0.525, -1.849e-5
0.524, -1.853e-5
0.523, -1.855e-5
0.522, -1.859e-5
0.521, -1.862e-5
0.520, -1.865e-5
0.519, -1.868e-5
0.518, -1.870e-5
0.517, -1.873e-5
0.516, -1.875e-5
0.515, -1.878e-5
0.514, -1.880e-5
0.513, -1.882e-5
0.512, -1.886e-5
0.511, -1.890e-5
0.510, -1.891e-5
0.509, -1.892e-5
0.508, -1.892e-5
0.507, -1.894e-5
0.506, -1.894e-5
0.505, -1.895e-5
0.504, -1.896e-5
0.503, -1.897e-5
0.502, -1.898e-5
0.501, -1.898e-5
0.500, -1.897e-5
0.499, -1.899e-5
0.498, -1.900e-5
0.497, -1.899e-5
0.496, -1.900e-5
0.495, -1.900e-5
0.494, -1.901e-5
0.493, -1.902e-5
0.492, -1.904e-5
0.491, -1.903e-5
0.490, -1.901e-5
0.489, -1.900e-5
0.488, -1.900e-5
0.487, -1.900e-5
0.486, -1.901e-5
0.485, -1.902e-5
0.484, -1.902e-5
0.483, -1.902e-5
0.482, -1.900e-5
0.481, -1.897e-5
0.480, -1.897e-5
0.479, -1.895e-5
0.478, -1.895e-5
0.477, -1.895e-5
0.476, -1.895e-5
0.475, -1.896e-5
0.474, -1.896e-5
0.473, -1.897e-5
0.472, -1.897e-5
0.471, -1.896e-5
0.470, -1.895e-5
0.469, -1.895e-5
0.468, -1.894e-5
0.467, -1.893e-5
0.466, -1.893e-5
0.465, -1.891e-5
0.464, -1.890e-5
0.463, -1.888e-5
0.462, -1.887e-5
0.461, -1.887e-5
0.460, -1.887e-5
0.459, -1.885e-5
0.458, -1.885e-5
0.457, -1.884e-5
0.456, -1.882e-5
0.455, -1.880e-5
0.454, -1.879e-5
0.453, -1.877e-5
0.452, -1.874e-5
0.451, -1.872e-5
0.450, -1.872e-5
0.449, -1.870e-5
0.448, -1.870e-5
0.447, -1.869e-5
0.446, -1.867e-5
0.445, -1.866e-5
0.444, -1.865e-5
0.443, -1.865e-5
0.442, -1.865e-5
0.441, -1.864e-5
0.440, -1.863e-5
0.439, -1.861e-5
0.438, -1.859e-5
0.437, -1.858e-5
0.436, -1.856e-5
0.435, -1.854e-5
0.434, -1.852e-5
0.433, -1.850e-5
0.432, -1.849e-5
0.431, -1.848e-5
0.430, -1.846e-5
0.429, -1.845e-5
0.428, -1.845e-5
0.427, -1.844e-5
0.426, -1.842e-5
0.425, -1.841e-5
0.424, -1.840e-5
0.423, -1.837e-5
0.422, -1.837e-5
0.421, -1.837e-5
0.420, -1.836e-5
0.419, -1.836e-5
0.418, -1.835e-5
0.417, -1.832e-5
0.416, -1.833e-5
0.415, -1.833e-5
0.414, -1.832e-5
0.413, -1.831e-5
0.412, -1.831e-5
0.411, -1.829e-5
0.410, -1.826e-5
0.409, -1.825e-5
0.408, -1.824e-5
0.407, -1.822e-5
0.406, -1.821e-5
0.405, -1.822e-5
0.404, -1.821e-5
0.403, -1.822e-5
0.402, -1.822e-5
0.401, -1.820e-5
0.400, -1.819e-5
0.399, -1.818e-5
0.398, -1.815e-5
0.397, -1.814e-5
0.396, -1.814e-5
0.395, -1.813e-5
0.394, -1.812e-5
0.393, -1.812e-5
0.392, -1.811e-5
0.391, -1.811e-5
0.390, -1.810e-5
0.389, -1.808e-5
0.388, -1.807e-5
0.387, -1.808e-5
0.386, -1.806e-5
0.385, -1.805e-5
0.384, -1.805e-5
0.383, -1.804e-5
0.382, -1.803e-5
0.381, -1.803e-5
0.380, -1.803e-5
0.379, -1.802e-5
0.378, -1.801e-5
0.377, -1.799e-5
0.376, -1.799e-5
0.375, -1.798e-5
0.374, -1.799e-5
0.373, -1.799e-5
0.372, -1.798e-5
0.371, -1.799e-5
0.370, -1.799e-5
0.369, -1.799e-5
0.368, -1.801e-5
0.367, -1.801e-5
0.366, -1.801e-5
0.365, -1.801e-5
0.364, -1.802e-5
0.363, -1.802e-5
0.362, -1.802e-5
0.361, -1.801e-5
0.360, -1.802e-5
0.359, -1.801e-5
0.358, -1.801e-5
0.357, -1.803e-5
0.356, -1.803e-5
0.355, -1.801e-5
0.354, -1.801e-5
0.353, -1.801e-5
0.352, -1.802e-5
0.351, -1.803e-5
0.350, -1.803e-5
0.349, -1.804e-5
0.348, -1.804e-5
0.347, -1.804e-5
0.346, -1.804e-5
0.345, -1.806e-5
0.344, -1.805e-5
0.343, -1.806e-5
0.342, -1.807e-5
0.341, -1.808e-5
0.340, -1.809e-5
0.339, -1.810e-5
0.338, -1.810e-5
0.337, -1.810e-5
0.336, -1.810e-5
0.335, -1.810e-5
0.334, -1.812e-5
0.333, -1.814e-5
0.332, -1.816e-5
0.331, -1.817e-5
0.330, -1.818e-5
0.329, -1.818e-5
0.328, -1.821e-5
0.327, -1.821e-5
0.326, -1.824e-5
0.325, -1.826e-5
0.324, -1.827e-5
0.323, -1.829e-5
0.322, -1.831e-5
0.321, -1.833e-5
0.320, -1.837e-5
0.319, -1.839e-5
0.318, -1.840e-5
0.317, -1.841e-5
0.316, -1.843e-5
0.315, -1.845e-5
0.314, -1.847e-5
0.313, -1.848e-5
0.312, -1.849e-5
0.311, -1.850e-5
0.310, -1.852e-5
0.309, -1.856e-5
0.308, -1.857e-5
0.307, -1.862e-5
0.306, -1.866e-5
0.305, -1.867e-5
0.304, -1.869e-5
0.303, -1.872e-5
0.302, -1.874e-5
0.301, -1.878e-5
0.300, -1.881e-5
0.299, -1.885e-5
0.298, -1.890e-5
0.297, -1.890e-5
0.296, -1.892e-5
0.295, -1.895e-5
0.294, -1.897e-5
0.293, -1.900e-5
0.292, -1.902e-5
0.291, -1.906e-5
0.290, -1.909e-5
0.289, -1.911e-5
0.288, -1.914e-5
0.287, -1.918e-5
0.286, -1.921e-5
0.285, -1.924e-5
0.284, -1.926e-5
0.283, -1.930e-5
0.282, -1.934e-5
0.281, -1.937e-5
0.280, -1.942e-5
0.279, -1.946e-5
0.278, -1.950e-5
0.277, -1.953e-5
0.276, -1.956e-5
0.275, -1.960e-5
0.274, -1.964e-5
0.273, -1.968e-5
0.272, -1.971e-5
0.271, -1.976e-5
0.270, -1.979e-5
0.269, -1.984e-5
0.268, -1.988e-5
0.267, -1.993e-5
0.266, -1.999e-5
0.265, -2.004e-5
0.264, -2.010e-5
0.263, -2.014e-5
0.262, -2.018e-5
0.261, -2.023e-5
0.260, -2.028e-5
0.259, -2.034e-5
0.258, -2.038e-5
0.257, -2.042e-5
0.256, -2.048e-5
0.255, -2.054e-5
0.254, -2.060e-5
0.253, -2.065e-5
0.252, -2.071e-5
0.251, -2.077e-5
0.250, -2.081e-5
0.249, -2.086e-5
0.248, -2.092e-5
0.247, -2.097e-5
0.246, -2.102e-5
0.245, -2.108e-5
0.244, -2.114e-5
0.243, -2.121e-5
0.242, -2.127e-5
0.241, -2.132e-5
0.240, -2.137e-5
0.239, -2.142e-5
0.238, -2.148e-5
0.237, -2.154e-5
0.236, -2.158e-5
0.235, -2.164e-5
0.234, -2.170e-5
0.233, -2.175e-5
0.232, -2.179e-5
0.231, -2.184e-5
0.230, -2.188e-5
0.229, -2.191e-5
0.228, -2.193e-5
0.227, -2.195e-5
0.226, -2.196e-5
0.225, -2.196e-5
0.224, -2.197e-5
0.223, -2.197e-5
0.222, -2.195e-5
0.221, -2.194e-5
0.220, -2.190e-5
0.219, -2.185e-5
0.218, -2.179e-5
0.217, -2.173e-5
0.216, -2.165e-5
0.215, -2.155e-5
0.214, -2.143e-5
0.213, -2.130e-5
0.212, -2.114e-5
0.211, -2.098e-5
0.210, -2.081e-5
0.209, -2.060e-5
0.208, -2.039e-5
0.207, -2.017e-5
0.206, -1.991e-5
0.205, -1.965e-5
0.204, -1.938e-5
0.203, -1.910e-5
0.202, -1.881e-5
0.201, -1.851e-5
0.200, -1.822e-5
0.199, -1.794e-5
0.198, -1.765e-5
0.197, -1.737e-5
0.196, -1.709e-5
0.195, -1.682e-5
0.194, -1.657e-5
0.193, -1.632e-5
0.192, -1.609e-5
0.191, -1.587e-5
0.190, -1.566e-5
0.189, -1.545e-5
0.188, -1.525e-5
0.187, -1.506e-5
0.186, -1.489e-5
0.185, -1.473e-5
0.184, -1.458e-5
0.183, -1.442e-5
0.182, -1.427e-5
0.181, -1.412e-5
0.180, -1.397e-5
0.179, -1.384e-5
0.178, -1.372e-5
0.177, -1.359e-5
0.176, -1.348e-5
0.175, -1.337e-5
0.174, -1.326e-5
0.173, -1.314e-5
0.172, -1.304e-5
0.171, -1.295e-5
0.170, -1.285e-5
0.169, -1.275e-5
0.168, -1.266e-5
0.167, -1.258e-5
0.166, -1.249e-5
0.165, -1.240e-5
0.164, -1.231e-5
0.163, -1.224e-5
0.162, -1.218e-5
0.161, -1.211e-5
0.160, -1.203e-5
0.159, -1.195e-5
0.158, -1.188e-5
0.157, -1.181e-5
0.156, -1.175e-5
0.155, -1.169e-5
0.154, -1.162e-5
0.153, -1.156e-5
0.152, -1.149e-5
0.151, -1.143e-5
0.150, -1.137e-5
0.149, -1.131e-5
0.148, -1.125e-5
0.147, -1.119e-5
0.146, -1.114e-5
0.145, -1.108e-5
0.144, -1.102e-5
0.143, -1.097e-5
0.142, -1.093e-5
0.141, -1.088e-5
0.140, -1.083e-5
0.139, -1.078e-5
0.138, -1.074e-5
0.137, -1.068e-5
0.136, -1.064e-5
0.135, -1.061e-5
0.134, -1.058e-5
0.133, -1.054e-5
0.132, -1.049e-5
0.131, -1.044e-5
0.130, -1.038e-5
0.129, -1.034e-5
0.128, -1.030e-5
0.127, -1.025e-5
0.126, -1.020e-5
0.125, -1.017e-5
0.124, -1.012e-5
0.123, -1.008e-5
0.122, -1.004e-5
0.121, -9.997e-6
0.120, -9.961e-6
0.119, -9.935e-6
0.118, -9.898e-6
0.117, -9.860e-6
0.116, -9.823e-6
0.115, -9.792e-6
0.114, -9.762e-6
0.113, -9.722e-6
0.112, -9.698e-6
0.111, -9.678e-6
0.110, -9.666e-6
0.109, -9.612e-6
0.108, -9.567e-6
0.107, -9.529e-6
0.106, -9.489e-6
0.105, -9.449e-6
0.104, -9.417e-6
0.103, -9.385e-6
0.102, -9.360e-6
0.101, -9.339e-6
0.100, -9.303e-6
0.099, -9.273e-6
0.098, -9.250e-6
0.097, -9.226e-6
0.096, -9.193e-6
0.095, -9.161e-6
0.094, -9.131e-6
0.093, -9.103e-6
0.092, -9.069e-6
0.091, -9.029e-6
0.090, -9.021e-6
0.089, -9.001e-6
0.088, -8.973e-6
0.087, -8.967e-6
0.086, -8.963e-6
0.085, -8.929e-6
0.084, -8.891e-6
0.083, -8.855e-6
0.082, -8.813e-6
0.081, -8.782e-6
0.080, -8.762e-6
0.079, -8.729e-6
0.078, -8.699e-6
0.077, -8.687e-6
0.076, -8.662e-6
0.075, -8.649e-6
0.074, -8.631e-6
0.073, -8.590e-6
0.072, -8.564e-6
0.071, -8.549e-6
0.070, -8.527e-6
0.069, -8.506e-6
0.068, -8.478e-6
0.067, -8.456e-6
0.066, -8.437e-6
0.065, -8.411e-6
0.064, -8.396e-6
0.063, -8.374e-6
0.062, -8.363e-6
0.061, -8.345e-6
0.060, -8.317e-6
0.059, -8.300e-6
0.058, -8.280e-6
0.057, -8.258e-6
0.056, -8.237e-6
0.055, -8.211e-6
0.054, -8.190e-6
0.053, -8.171e-6
0.052, -8.144e-6
0.051, -8.120e-6
0.050, -8.100e-6
0.049, -8.084e-6
0.048, -8.062e-6
0.047, -8.043e-6
0.046, -8.029e-6
0.045, -8.016e-6
0.044, -8.003e-6
0.043, -7.984e-6
0.042, -7.973e-6
0.041, -7.954e-6
0.040, -7.937e-6
0.039, -7.922e-6
0.038, -7.906e-6
0.037, -7.886e-6
0.036, -7.872e-6
0.035, -7.855e-6
0.034, -7.845e-6
0.033, -7.822e-6
0.032, -7.804e-6
0.031, -7.783e-6
0.030, -7.765e-6
0.029, -7.745e-6
0.028, -7.725e-6
0.027, -7.711e-6
0.026, -7.706e-6
0.025, -7.691e-6
0.024, -7.678e-6
0.023, -7.659e-6
0.022, -7.640e-6
0.021, -7.628e-6
0.020, -7.605e-6
0.019, -7.587e-6
0.018, -7.563e-6
0.017, -7.549e-6
0.016, -7.533e-6
0.015, -7.519e-6
0.014, -7.499e-6
0.013, -7.483e-6
0.012, -7.467e-6
0.011, -7.451e-6
0.010, -7.431e-6
0.009, -7.414e-6
0.008, -7.399e-6
0.007, -7.383e-6
0.006, -7.367e-6
0.005, -7.348e-6
0.004, -7.342e-6
0.003, -7.342e-6
0.002, -7.329e-6
0.001, -7.310e-6
0.000, -7.234e-6
0.001, -7.011e-6
0.002, -6.860e-6
0.003, -6.760e-6
0.004, -6.675e-6
0.005, -6.588e-6
0.006, -6.515e-6
0.007, -6.451e-6
0.008, -6.380e-6
0.009, -6.319e-6
0.010, -6.255e-6
0.011, -6.190e-6
0.012, -6.132e-6
0.013, -6.073e-6
0.014, -6.020e-6
0.015, -5.972e-6
0.016, -5.928e-6
0.017, -5.876e-6
0.018, -5.826e-6
0.019, -5.773e-6
0.020, -5.720e-6
0.021, -5.671e-6
0.022, -5.619e-6
0.023, -5.576e-6
0.024, -5.535e-6
0.025, -5.492e-6
0.026, -5.449e-6
0.027, -5.410e-6
0.028, -5.370e-6
0.029, -5.326e-6
0.030, -5.282e-6
0.031, -5.242e-6
0.032, -5.203e-6
0.033, -5.156e-6
0.034, -5.124e-6
0.035, -5.102e-6
0.036, -5.060e-6
0.037, -5.018e-6
0.038, -4.980e-6
0.039, -4.942e-6
0.040, -4.902e-6
0.041, -4.865e-6
0.042, -4.831e-6
0.043, -4.799e-6
0.044, -4.773e-6
0.045, -4.739e-6
0.046, -4.695e-6
0.047, -4.666e-6
0.048, -4.627e-6
0.049, -4.593e-6
0.050, -4.566e-6
0.051, -4.525e-6
0.052, -4.493e-6
0.053, -4.464e-6
0.054, -4.432e-6
0.055, -4.406e-6
0.056, -4.373e-6
0.057, -4.336e-6
0.058, -4.305e-6
0.059, -4.277e-6
0.060, -4.245e-6
0.061, -4.215e-6
0.062, -4.190e-6
0.063, -4.158e-6
0.064, -4.129e-6
0.065, -4.103e-6
0.066, -4.081e-6
0.067, -4.050e-6
0.068, -4.019e-6
0.069, -3.994e-6
0.070, -3.973e-6
0.071, -3.948e-6
0.072, -3.917e-6
0.073, -3.887e-6
0.074, -3.858e-6
0.075, -3.835e-6
0.076, -3.811e-6
0.077, -3.785e-6
0.078, -3.754e-6
0.079, -3.726e-6
0.080, -3.698e-6
0.081, -3.682e-6
0.082, -3.662e-6
0.083, -3.635e-6
0.084, -3.612e-6
0.085, -3.581e-6
0.086, -3.555e-6
0.087, -3.532e-6
0.088, -3.507e-6
0.089, -3.474e-6
0.090, -3.446e-6
0.091, -3.435e-6
0.092, -3.422e-6
0.093, -3.391e-6
0.094, -3.361e-6
0.095, -3.334e-6
0.096, -3.311e-6
0.097, -3.295e-6
0.098, -3.277e-6
0.099, -3.250e-6
0.100, -3.229e-6
0.101, -3.206e-6
0.102, -3.177e-6
0.103, -3.152e-6
0.104, -3.135e-6
0.105, -3.113e-6
0.106, -3.092e-6
0.107, -3.070e-6
0.108, -3.045e-6
0.109, -3.021e-6
0.110, -2.998e-6
0.111, -2.973e-6
0.112, -2.954e-6
0.113, -2.937e-6
0.114, -2.920e-6
0.115, -2.899e-6
0.116, -2.876e-6
0.117, -2.856e-6
0.118, -2.831e-6
0.119, -2.809e-6
0.120, -2.786e-6
0.121, -2.772e-6
0.122, -2.750e-6
0.123, -2.723e-6
0.124, -2.700e-6
0.125, -2.680e-6
0.126, -2.658e-6
0.127, -2.638e-6
0.128, -2.614e-6
0.129, -2.594e-6
0.130, -2.575e-6
0.131, -2.555e-6
0.132, -2.537e-6
0.133, -2.519e-6
0.134, -2.497e-6
0.135, -2.477e-6
0.136, -2.459e-6
0.137, -2.440e-6
0.138, -2.420e-6
0.139, -2.403e-6
0.140, -2.385e-6
0.141, -2.370e-6
0.142, -2.355e-6
0.143, -2.334e-6
0.144, -2.310e-6
0.145, -2.291e-6
0.146, -2.273e-6
0.147, -2.254e-6
0.148, -2.234e-6
0.149, -2.213e-6
0.150, -2.193e-6
0.151, -2.173e-6
0.152, -2.151e-6
0.153, -2.132e-6
0.154, -2.113e-6
0.155, -2.095e-6
0.156, -2.075e-6
0.157, -2.054e-6
0.158, -2.032e-6
0.159, -2.012e-6
0.160, -1.989e-6
0.161, -1.968e-6
0.162, -1.948e-6
0.163, -1.929e-6
0.164, -1.905e-6
0.165, -1.882e-6
0.166, -1.858e-6
0.167, -1.835e-6
0.168, -1.812e-6
0.169, -1.787e-6
0.170, -1.766e-6
0.171, -1.743e-6
0.172, -1.721e-6
0.173, -1.698e-6
0.174, -1.672e-6
0.175, -1.647e-6
0.176, -1.624e-6
0.177, -1.595e-6
0.178, -1.570e-6
0.179, -1.544e-6
0.180, -1.519e-6
0.181, -1.492e-6
0.182, -1.463e-6
0.183, -1.437e-6
0.184, -1.410e-6
0.185, -1.381e-6
0.186, -1.349e-6
0.187, -1.319e-6
0.188, -1.288e-6
0.189, -1.255e-6
0.190, -1.218e-6
0.191, -1.184e-6
0.192, -1.142e-6
0.193, -1.106e-6
0.194, -1.069e-6
0.195, -1.029e-6
0.196, -9.844e-7
0.197, -9.413e-7
0.198, -8.914e-7
0.199, -8.397e-7
0.200, -7.862e-7
0.201, -7.259e-7
0.202, -6.661e-7
0.203, -5.986e-7
0.204, -5.271e-7
0.205, -4.468e-7
0.206, -3.661e-7
0.207, -2.787e-7
0.208, -1.788e-7
0.209, -6.756e-8
0.210, 4.697e-8
0.211, 1.757e-7
0.212, 3.209e-7
0.213, 4.749e-7
0.214, 6.440e-7
0.215, 8.254e-7
0.216, 1.028e-6
0.217, 1.250e-6
0.218, 1.488e-6
0.219, 1.746e-6
0.220, 2.018e-6
0.221, 2.315e-6
0.222, 2.635e-6
0.223, 2.971e-6
0.224, 3.327e-6
0.225, 3.694e-6
0.226, 4.084e-6
0.227, 4.494e-6
0.228, 4.913e-6
0.229, 5.340e-6
0.230, 5.781e-6
0.231, 6.230e-6
0.232, 6.688e-6
0.233, 7.154e-6
0.234, 7.626e-6
0.235, 8.092e-6
0.236, 8.559e-6
0.237, 9.029e-6
0.238, 9.492e-6
0.239, 9.953e-6
0.240, 1.040e-5
0.241, 1.084e-5
0.242, 1.127e-5
0.243, 1.168e-5
0.244, 1.208e-5
0.245, 1.245e-5
0.246, 1.280e-5
0.247, 1.312e-5
0.248, 1.343e-5
0.249, 1.371e-5
0.250, 1.396e-5
0.251, 1.420e-5
0.252, 1.441e-5
0.253, 1.460e-5
0.254, 1.477e-5
0.255, 1.491e-5
0.256, 1.504e-5
0.257, 1.514e-5
0.258, 1.520e-5
0.259, 1.524e-5
0.260, 1.524e-5
0.261, 1.523e-5
0.262, 1.520e-5
0.263, 1.516e-5
0.264, 1.510e-5
0.265, 1.503e-5
0.266, 1.495e-5
0.267, 1.487e-5
0.268, 1.479e-5
0.269, 1.471e-5
0.270, 1.463e-5
0.271, 1.455e-5
0.272, 1.446e-5
0.273, 1.438e-5
0.274, 1.429e-5
0.275, 1.421e-5
0.276, 1.412e-5
0.277, 1.404e-5
0.278, 1.395e-5
0.279, 1.387e-5
0.280, 1.379e-5
0.281, 1.371e-5
0.282, 1.364e-5
0.283, 1.357e-5
0.284, 1.350e-5
0.285, 1.343e-5
0.286, 1.337e-5
0.287, 1.331e-5
0.288, 1.327e-5
0.289, 1.322e-5
0.290, 1.317e-5
0.291, 1.314e-5
0.292, 1.310e-5
0.293, 1.307e-5
0.294, 1.306e-5
0.295, 1.303e-5
0.296, 1.302e-5
0.297, 1.300e-5
0.298, 1.299e-5
0.299, 1.298e-5
0.300, 1.296e-5
0.301, 1.296e-5
0.302, 1.295e-5
0.303, 1.294e-5
0.304, 1.293e-5
0.305, 1.293e-5
0.306, 1.292e-5
0.307, 1.292e-5
0.308, 1.292e-5
0.309, 1.291e-5
0.310, 1.290e-5
0.311, 1.290e-5
0.312, 1.290e-5
0.313, 1.290e-5
0.314, 1.291e-5
0.315, 1.292e-5
0.316, 1.292e-5
0.317, 1.294e-5
0.318, 1.297e-5
0.319, 1.299e-5
0.320, 1.302e-5
0.321, 1.305e-5
0.322, 1.308e-5
0.323, 1.312e-5
0.324, 1.315e-5
0.325, 1.319e-5
0.326, 1.324e-5
0.327, 1.329e-5
0.328, 1.333e-5
0.329, 1.337e-5
0.330, 1.342e-5
0.331, 1.347e-5
0.332, 1.352e-5
0.333, 1.358e-5
0.334, 1.364e-5
0.335, 1.368e-5
0.336, 1.373e-5
0.337, 1.378e-5
0.338, 1.383e-5
0.339, 1.389e-5
0.340, 1.396e-5
0.341, 1.402e-5
0.342, 1.409e-5
0.343, 1.414e-5
0.344, 1.421e-5
0.345, 1.428e-5
0.346, 1.434e-5
0.347, 1.440e-5
0.348, 1.447e-5
0.349, 1.453e-5
0.350, 1.460e-5
0.351, 1.467e-5
0.352, 1.474e-5
0.353, 1.481e-5
0.354, 1.487e-5
0.355, 1.494e-5
0.356, 1.500e-5
0.357, 1.507e-5
0.358, 1.515e-5
0.359, 1.524e-5
0.360, 1.532e-5
0.361, 1.539e-5
0.362, 1.545e-5
0.363, 1.553e-5
0.364, 1.561e-5
0.365, 1.569e-5
0.366, 1.577e-5
0.367, 1.583e-5
0.368, 1.591e-5
0.369, 1.599e-5
0.370, 1.607e-5
0.371, 1.615e-5
0.372, 1.623e-5
0.373, 1.630e-5
0.374, 1.639e-5
0.375, 1.648e-5
0.376, 1.655e-5
0.377, 1.665e-5
0.378, 1.672e-5
0.379, 1.681e-5
0.380, 1.689e-5
0.381, 1.697e-5
0.382, 1.705e-5
0.383, 1.712e-5
0.384, 1.720e-5
0.385, 1.728e-5
0.386, 1.736e-5
0.387, 1.745e-5
0.388, 1.754e-5
0.389, 1.763e-5
0.390, 1.772e-5
0.391, 1.781e-5
0.392, 1.789e-5
0.393, 1.799e-5
0.394, 1.807e-5
0.395, 1.817e-5
0.396, 1.826e-5
0.397, 1.834e-5
0.398, 1.841e-5
0.399, 1.848e-5
0.400, 1.857e-5
0.401, 1.866e-5
0.402, 1.875e-5
0.403, 1.884e-5
0.404, 1.892e-5
0.405, 1.899e-5
0.406, 1.907e-5
0.407, 1.916e-5
0.408, 1.924e-5
0.409, 1.933e-5
0.410, 1.942e-5
0.411, 1.951e-5
0.412, 1.959e-5
0.413, 1.967e-5
0.414, 1.976e-5
0.415, 1.984e-5
0.416, 1.994e-5
0.417, 2.004e-5
0.418, 2.013e-5
0.419, 2.022e-5
0.420, 2.030e-5
0.421, 2.040e-5
0.422, 2.049e-5
0.423, 2.058e-5
0.424, 2.068e-5
0.425, 2.079e-5
0.426, 2.086e-5
0.427, 2.095e-5
0.428, 2.104e-5
0.429, 2.112e-5
0.430, 2.121e-5
0.431, 2.129e-5
0.432, 2.139e-5
0.433, 2.146e-5
0.434, 2.155e-5
0.435, 2.166e-5
0.436, 2.176e-5
0.437, 2.186e-5
0.438, 2.197e-5
0.439, 2.208e-5
0.440, 2.218e-5
0.441, 2.227e-5
0.442, 2.238e-5
0.443, 2.248e-5
0.444, 2.258e-5
0.445, 2.267e-5
0.446, 2.277e-5
0.447, 2.286e-5
0.448, 2.297e-5
0.449, 2.308e-5
0.450, 2.317e-5
0.451, 2.327e-5
0.452, 2.337e-5
0.453, 2.347e-5
0.454, 2.357e-5
0.455, 2.369e-5
0.456, 2.379e-5
0.457, 2.390e-5
0.458, 2.401e-5
0.459, 2.413e-5
0.460, 2.423e-5
0.461, 2.435e-5
0.462, 2.446e-5
0.463, 2.454e-5
0.464, 2.464e-5
0.465, 2.475e-5
0.466, 2.486e-5
0.467, 2.496e-5
0.468, 2.508e-5
0.469, 2.519e-5
0.470, 2.530e-5
0.471, 2.541e-5
0.472, 2.553e-5
0.473, 2.563e-5
0.474, 2.574e-5
0.475, 2.586e-5
0.476, 2.598e-5
0.477, 2.608e-5
0.478, 2.619e-5
0.479, 2.630e-5
0.480, 2.642e-5
0.481, 2.653e-5
0.482, 2.663e-5
0.483, 2.675e-5
0.484, 2.687e-5
0.485, 2.699e-5
0.486, 2.711e-5
0.487, 2.723e-5
0.488, 2.736e-5
0.489, 2.747e-5
0.490, 2.758e-5
0.491, 2.769e-5
0.492, 2.780e-5
0.493, 2.791e-5
0.494, 2.803e-5
0.495, 2.814e-5
0.496, 2.826e-5
0.497, 2.836e-5
0.498, 2.847e-5
0.499, 2.860e-5
0.500, 2.872e-5
0.501, 2.885e-5
0.502, 2.896e-5
0.503, 2.907e-5
0.504, 2.920e-5
0.505, 2.932e-5
0.506, 2.944e-5
0.507, 2.956e-5
0.508, 2.969e-5
0.509, 2.980e-5
0.510, 2.994e-5
0.511, 3.005e-5
0.512, 3.019e-5
0.513, 3.034e-5
0.514, 3.046e-5
0.515, 3.058e-5
0.516, 3.070e-5
0.517, 3.083e-5
0.518, 3.097e-5
0.519, 3.110e-5
0.520, 3.122e-5
0.521, 3.133e-5
0.522, 3.146e-5
0.523, 3.160e-5
0.524, 3.175e-5
0.525, 3.190e-5
0.526, 3.203e-5
0.527, 3.214e-5
0.528, 3.227e-5
0.529, 3.240e-5
0.530, 3.253e-5
0.531, 3.268e-5
0.532, 3.282e-5
0.533, 3.295e-5
0.534, 3.308e-5
0.535, 3.319e-5
0.536, 3.332e-5
0.537, 3.347e-5
0.538, 3.362e-5
0.539, 3.378e-5
0.540, 3.394e-5
0.541, 3.408e-5
0.542, 3.421e-5
0.543, 3.435e-5
0.544, 3.451e-5
0.545, 3.467e-5
0.546, 3.482e-5
0.547, 3.499e-5
0.548, 3.516e-5
0.549, 3.532e-5
0.550, 3.548e-5
0.551, 3.564e-5
0.552, 3.581e-5
0.553, 3.598e-5
0.554, 3.613e-5
0.555, 3.628e-5
0.556, 3.644e-5
0.557, 3.662e-5
0.558, 3.679e-5
0.559, 3.697e-5
0.560, 3.715e-5
0.561, 3.732e-5
0.562, 3.749e-5
0.563, 3.766e-5
0.564, 3.784e-5
0.565, 3.803e-5
0.566, 3.820e-5
0.567, 3.837e-5
0.568, 3.854e-5
0.569, 3.871e-5
0.570, 3.888e-5
0.571, 3.905e-5
0.572, 3.921e-5
0.573, 3.937e-5
0.574, 3.954e-5
0.575, 3.971e-5
0.576, 3.990e-5
0.577, 4.010e-5
0.578, 4.029e-5
0.579, 4.050e-5
0.580, 4.070e-5
0.581, 4.089e-5
0.582, 4.111e-5
0.583, 4.130e-5
0.584, 4.152e-5
0.585, 4.173e-5
0.586, 4.192e-5
0.587, 4.212e-5
0.588, 4.231e-5
0.589, 4.252e-5
0.590, 4.273e-5
0.591, 4.293e-5
0.592, 4.315e-5
0.593, 4.338e-5
0.594, 4.361e-5
0.595, 4.383e-5
0.596, 4.405e-5
0.597, 4.426e-5
0.598, 4.447e-5
0.599, 4.467e-5
0.600, 4.488e-5
0.601, 4.510e-5
0.602, 4.533e-5
0.603, 4.557e-5
0.604, 4.582e-5
0.605, 4.604e-5
0.606, 4.628e-5
0.607, 4.650e-5
0.608, 4.674e-5
0.609, 4.698e-5
0.610, 4.720e-5
0.611, 4.743e-5
0.612, 4.767e-5
0.613, 4.789e-5
0.614, 4.814e-5
0.615, 4.842e-5
0.616, 4.868e-5
0.617, 4.893e-5
0.618, 4.920e-5
0.619, 4.944e-5
0.620, 4.968e-5
0.621, 4.996e-5
0.622, 5.023e-5
0.623, 5.048e-5
0.624, 5.075e-5
0.625, 5.102e-5
0.626, 5.127e-5
0.627, 5.156e-5
0.628, 5.184e-5
0.629, 5.212e-5
0.630, 5.241e-5
0.631, 5.269e-5
0.632, 5.299e-5
0.633, 5.330e-5
0.634, 5.361e-5
0.635, 5.392e-5
0.636, 5.421e-5
0.637, 5.449e-5
0.638, 5.480e-5
0.639, 5.513e-5
0.640, 5.547e-5
0.641, 5.578e-5
0.642, 5.608e-5
0.643, 5.641e-5
0.644, 5.674e-5
0.645, 5.709e-5
0.646, 5.742e-5
0.647, 5.777e-5
0.648, 5.815e-5
0.649, 5.851e-5
0.650, 5.887e-5
0.651, 5.926e-5
0.652, 5.964e-5
0.653, 6.004e-5
0.654, 6.039e-5
0.655, 6.075e-5
0.656, 6.112e-5
0.657, 6.154e-5
0.658, 6.195e-5
0.659, 6.236e-5
0.660, 6.277e-5
0.661, 6.319e-5
0.662, 6.362e-5
0.663, 6.406e-5
0.664, 6.449e-5
0.665, 6.492e-5
0.666, 6.537e-5
0.667, 6.586e-5
0.668, 6.634e-5
0.669, 6.687e-5
0.670, 6.741e-5
0.671, 6.791e-5
0.672, 6.842e-5
0.673, 6.894e-5
0.674, 6.945e-5
0.675, 7.001e-5
0.676, 7.054e-5
0.677, 7.110e-5
0.678, 7.166e-5
0.679, 7.221e-5
0.680, 7.281e-5
0.681, 7.341e-5
0.682, 7.399e-5
0.683, 7.460e-5
0.684, 7.520e-5
0.685, 7.585e-5
0.686, 7.646e-5
0.687, 7.710e-5
0.688, 7.776e-5
0.689, 7.841e-5
0.690, 7.908e-5
0.691, 7.975e-5
0.692, 8.044e-5
0.693, 8.118e-5
0.694, 8.191e-5
0.695, 8.263e-5
0.696, 8.336e-5
0.697, 8.415e-5
0.698, 8.496e-5
0.699, 8.576e-5
0.700, 8.655e-5
0.701, 8.735e-5
0.702, 8.820e-5
0.703, 8.906e-5
0.704, 8.995e-5
0.705, 9.084e-5
0.706, 9.171e-5
0.707, 9.261e-5
0.708, 9.354e-5
0.709, 9.444e-5
0.710, 9.537e-5
0.711, 9.634e-5
0.712, 9.728e-5
0.713, 9.822e-5
0.714, 9.924e-5
0.715, 1.003e-4
0.716, 1.013e-4
0.717, 1.024e-4
0.718, 1.035e-4
0.719, 1.046e-4
0.720, 1.057e-4
0.721, 1.068e-4
0.722, 1.078e-4
0.723, 1.090e-4
0.724, 1.102e-4
0.725, 1.114e-4
0.726, 1.126e-4
0.727, 1.138e-4
0.728, 1.149e-4
0.729, 1.161e-4
0.730, 1.174e-4
0.731, 1.186e-4
0.732, 1.199e-4
0.733, 1.212e-4
0.734, 1.225e-4
0.735, 1.238e-4
0.736, 1.252e-4
0.737, 1.265e-4
0.738, 1.279e-4
0.739, 1.293e-4
0.740, 1.307e-4
0.741, 1.320e-4
0.742, 1.335e-4
0.743, 1.349e-4
0.744, 1.364e-4
0.745, 1.379e-4
0.746, 1.394e-4
0.747, 1.409e-4
0.748, 1.424e-4
0.749, 1.439e-4
0.750, 1.454e-4
0.751, 1.470e-4
0.752, 1.486e-4
0.753, 1.501e-4
0.754, 1.518e-4
0.755, 1.534e-4
0.756, 1.551e-4
0.757, 1.568e-4
0.758, 1.584e-4
0.759, 1.600e-4
0.760, 1.617e-4
0.761, 1.634e-4
0.762, 1.651e-4
0.763, 1.668e-4
0.764, 1.686e-4
0.765, 1.703e-4
0.766, 1.721e-4
0.767, 1.739e-4
0.768, 1.757e-4
0.769, 1.775e-4
0.770, 1.792e-4
0.771, 1.811e-4
0.772, 1.829e-4
0.773, 1.848e-4
0.774, 1.866e-4
0.775, 1.884e-4
0.776, 1.903e-4
0.777, 1.922e-4
0.778, 1.941e-4
0.779, 1.961e-4
0.780, 1.980e-4
0.781, 2.000e-4
0.782, 2.019e-4
0.783, 2.039e-4
0.784, 2.058e-4
0.785, 2.077e-4
0.786, 2.097e-4
0.787, 2.117e-4
0.788, 2.137e-4
0.789, 2.157e-4
0.790, 2.177e-4
0.791, 2.197e-4
0.792, 2.218e-4
0.793, 2.239e-4
0.794, 2.260e-4
0.795, 2.281e-4
0.796, 2.302e-4
0.797, 2.323e-4
0.798, 2.344e-4
0.799, 2.366e-4
0.800, 2.383e-4
0.799, 2.365e-4
0.798, 2.327e-4
0.797, 2.289e-4
0.796, 2.251e-4
0.795, 2.215e-4
0.794, 2.179e-4
0.793, 2.145e-4
0.792, 2.110e-4
0.791, 2.077e-4
0.790, 2.044e-4
0.789, 2.012e-4
0.788, 1.980e-4
0.787, 1.949e-4
0.786, 1.917e-4
0.785, 1.887e-4
0.784, 1.857e-4
0.783, 1.827e-4
0.782, 1.798e-4
0.781, 1.769e-4
0.780, 1.740e-4
0.779, 1.712e-4
0.778, 1.684e-4
0.777, 1.657e-4
0.776, 1.630e-4
0.775, 1.603e-4
0.774, 1.577e-4
0.773, 1.551e-4
0.772, 1.524e-4
0.771, 1.499e-4
0.770, 1.473e-4
0.769, 1.449e-4
0.768, 1.424e-4
0.767, 1.399e-4
0.766, 1.375e-4
0.765, 1.351e-4
0.764, 1.328e-4
0.763, 1.305e-4
0.762, 1.282e-4
0.761, 1.259e-4
0.760, 1.237e-4
0.759, 1.215e-4
0.758, 1.193e-4
0.757, 1.172e-4
0.756, 1.150e-4
0.755, 1.129e-4
0.754, 1.109e-4
0.753, 1.088e-4
0.752, 1.068e-4
0.751, 1.048e-4
0.750, 1.028e-4
0.749, 1.009e-4
0.748, 9.905e-5
0.747, 9.715e-5
0.746, 9.527e-5
0.745, 9.339e-5
0.744, 9.157e-5
0.743, 8.976e-5
0.742, 8.798e-5
0.741, 8.626e-5
0.740, 8.454e-5
0.739, 8.288e-5
0.738, 8.123e-5
0.737, 7.958e-5
0.736, 7.795e-5
0.735, 7.633e-5
0.734, 7.472e-5
0.733, 7.316e-5
0.732, 7.165e-5
0.731, 7.014e-5
0.730, 6.866e-5
0.729, 6.721e-5
0.728, 6.576e-5
0.727, 6.436e-5
0.726, 6.301e-5
0.725, 6.164e-5
0.724, 6.025e-5
0.723, 5.888e-5
0.722, 5.754e-5
0.721, 5.625e-5
0.720, 5.501e-5
0.719, 5.374e-5
0.718, 5.251e-5
0.717, 5.128e-5
0.716, 5.007e-5
0.715, 4.889e-5
0.714, 4.773e-5
0.713, 4.657e-5
0.712, 4.545e-5
0.711, 4.437e-5
0.710, 4.330e-5
0.709, 4.225e-5
0.708, 4.122e-5
0.707, 4.019e-5
0.706, 3.918e-5
0.705, 3.818e-5
0.704, 3.721e-5
0.703, 3.627e-5
0.702, 3.532e-5
0.701, 3.440e-5
0.700, 3.349e-5
0.699, 3.258e-5
0.698, 3.172e-5
0.697, 3.085e-5
0.696, 2.997e-5
0.695, 2.913e-5
0.694, 2.831e-5
0.693, 2.750e-5
0.692, 2.670e-5
0.691, 2.591e-5
0.690, 2.513e-5
0.689, 2.438e-5
0.688, 2.363e-5
0.687, 2.289e-5
0.686, 2.216e-5
0.685, 2.146e-5
0.684, 2.077e-5
0.683, 2.007e-5
0.682, 1.939e-5
0.681, 1.875e-5
0.680, 1.809e-5
0.679, 1.745e-5
0.678, 1.681e-5
0.677, 1.620e-5
0.676, 1.560e-5
0.675, 1.501e-5
0.674, 1.442e-5
0.673, 1.385e-5
0.672, 1.329e-5
0.671, 1.273e-5
0.670, 1.218e-5
0.669, 1.163e-5
0.668, 1.111e-5
0.667, 1.059e-5
0.666, 1.008e-5
0.665, 9.567e-6
0.664, 9.069e-6
0.663, 8.586e-6
0.662, 8.107e-6
0.661, 7.634e-6
0.660, 7.171e-6
0.659, 6.705e-6
0.658, 6.255e-6
0.657, 5.823e-6
0.656, 5.386e-6
0.655, 4.961e-6
0.654, 4.539e-6
0.653, 4.125e-6
0.652, 3.715e-6
0.651, 3.322e-6
0.650, 2.928e-6
0.649, 2.547e-6
0.648, 2.163e-6
0.647, 1.794e-6
0.646, 1.420e-6
0.645, 1.057e-6
0.644, 7.030e-7
0.643, 3.495e-7
0.642, -3.146e-10
0.641, -3.410e-7
0.640, -6.808e-7
0.639, -1.010e-6
0.638, -1.326e-6
0.637, -1.656e-6
0.636, -1.974e-6
0.635, -2.283e-6
0.634, -2.589e-6
0.633, -2.893e-6
0.632, -3.192e-6
0.631, -3.486e-6
0.630, -3.774e-6
0.629, -4.062e-6
0.628, -4.337e-6
0.627, -4.619e-6
0.626, -4.896e-6
0.625, -5.165e-6
0.624, -5.435e-6
0.623, -5.693e-6
0.622, -5.950e-6
0.621, -6.208e-6
0.620, -6.453e-6
0.619, -6.698e-6
0.618, -6.939e-6
0.617, -7.175e-6
0.616, -7.422e-6
0.615, -7.656e-6
0.614, -7.895e-6
0.613, -8.122e-6
0.612, -8.320e-6
0.611, -8.536e-6
0.610, -8.753e-6
0.609, -8.953e-6
0.608, -9.154e-6
0.607, -9.360e-6
0.606, -9.564e-6
0.605, -9.764e-6
0.604, -9.960e-6
0.603, -1.015e-5
0.602, -1.034e-5
0.601, -1.052e-5
0.600, -1.071e-5
0.599, -1.088e-5
0.598, -1.106e-5
0.597, -1.123e-5
0.596, -1.139e-5
0.595, -1.157e-5
0.594, -1.174e-5
0.593, -1.189e-5
0.592, -1.204e-5
0.591, -1.220e-5
0.590, -1.233e-5
0.589, -1.249e-5
0.588, -1.264e-5
0.587, -1.279e-5
0.586, -1.293e-5
0.585, -1.307e-5
0.584, -1.321e-5
0.583, -1.334e-5
0.582, -1.347e-5
0.581, -1.360e-5
0.580, -1.373e-5
0.579, -1.384e-5
0.578, -1.397e-5
0.577, -1.409e-5
0.576, -1.420e-5
0.575, -1.431e-5
0.574, -1.443e-5
0.573, -1.454e-5
0.572, -1.464e-5
0.571, -1.475e-5
0.570, -1.485e-5
0.569, -1.496e-5
0.568, -1.505e-5
0.567, -1.515e-5
0.566, -1.525e-5
0.565, -1.535e-5
0.564, -1.544e-5
0.563, -1.553e-5
0.562, -1.562e-5
0.561, -1.570e-5
0.560, -1.579e-5
0.559, -1.587e-5
0.558, -1.594e-5
0.557, -1.601e-5
0.556, -1.609e-5
0.555, -1.618e-5
0.554, -1.627e-5
0.553, -1.634e-5
0.552, -1.640e-5
0.551, -1.646e-5
0.550, -1.652e-5
0.549, -1.658e-5
0.548, -1.664e-5
0.547, -1.669e-5
0.546, -1.674e-5
0.545, -1.678e-5
0.544, -1.684e-5
0.543, -1.689e-5
0.542, -1.694e-5
0.541, -1.700e-5
0.540, -1.707e-5
0.539, -1.712e-5
0.538, -1.716e-5
0.537, -1.720e-5
0.536, -1.724e-5
0.535, -1.729e-5
0.534, -1.733e-5
0.533, -1.738e-5
0.532, -1.741e-5
0.531, -1.746e-5
0.530, -1.749e-5
0.529, -1.751e-5
0.528, -1.754e-5
0.527, -1.757e-5
0.526, -1.759e-5
0.525, -1.761e-5
0.524, -1.764e-5
0.523, -1.767e-5
0.522, -1.770e-5
0.521, -1.771e-5
0.520, -1.773e-5
0.519, -1.777e-5
0.518, -1.779e-5
0.517, -1.781e-5
0.516, -1.783e-5
0.515, -1.785e-5
0.514, -1.788e-5
0.513, -1.789e-5
0.512, -1.793e-5
0.511, -1.795e-5
0.510, -1.794e-5
0.509, -1.797e-5
0.508, -1.798e-5
0.507, -1.799e-5
0.506, -1.800e-5
0.505, -1.801e-5
0.504, -1.804e-5
0.503, -1.805e-5
0.502, -1.806e-5
0.501, -1.808e-5
0.500, -1.812e-5
0.499, -1.816e-5
0.498, -1.812e-5
0.497, -1.809e-5
0.496, -1.811e-5
0.495, -1.811e-5
0.494, -1.810e-5
0.493, -1.811e-5
0.492, -1.813e-5
0.491, -1.813e-5
0.490, -1.813e-5
0.489, -1.813e-5
0.488, -1.813e-5
0.487, -1.812e-5
0.486, -1.812e-5
0.485, -1.813e-5
0.484, -1.812e-5
0.483, -1.811e-5
0.482, -1.811e-5
0.481, -1.812e-5
0.480, -1.814e-5
0.479, -1.816e-5
0.478, -1.812e-5
0.477, -1.809e-5
0.476, -1.808e-5
0.475, -1.806e-5
0.474, -1.806e-5
0.473, -1.806e-5
0.472, -1.806e-5
0.471, -1.805e-5
0.470, -1.804e-5
0.469, -1.805e-5
0.468, -1.806e-5
0.467, -1.807e-5
0.466, -1.807e-5
0.465, -1.805e-5
0.464, -1.803e-5
0.463, -1.800e-5
0.462, -1.800e-5
0.461, -1.799e-5
0.460, -1.798e-5
0.459, -1.797e-5
0.458, -1.794e-5
0.457, -1.793e-5
0.456, -1.792e-5
0.455, -1.790e-5
0.454, -1.790e-5
0.453, -1.790e-5
0.452, -1.787e-5
0.451, -1.786e-5
0.450, -1.786e-5
0.449, -1.784e-5
0.448, -1.785e-5
0.447, -1.785e-5
0.446, -1.785e-5
0.445, -1.784e-5
0.444, -1.781e-5
0.443, -1.780e-5
0.442, -1.780e-5
0.441, -1.777e-5
0.440, -1.777e-5
0.439, -1.776e-5
0.438, -1.773e-5
0.437, -1.774e-5
0.436, -1.772e-5
0.435, -1.771e-5
0.434, -1.769e-5
0.433, -1.767e-5
0.432, -1.766e-5
0.431, -1.766e-5
0.430, -1.765e-5
0.429, -1.765e-5
0.428, -1.763e-5
0.427, -1.761e-5
0.426, -1.759e-5
0.425, -1.758e-5
0.424, -1.758e-5
0.423, -1.757e-5
0.422, -1.756e-5
0.421, -1.756e-5
0.420, -1.755e-5
0.419, -1.753e-5
0.418, -1.751e-5
0.417, -1.750e-5
0.416, -1.750e-5
0.415, -1.751e-5
0.414, -1.749e-5
0.413, -1.748e-5
0.412, -1.747e-5
0.411, -1.745e-5
0.410, -1.746e-5
0.409, -1.747e-5
0.408, -1.743e-5
0.407, -1.740e-5
0.406, -1.737e-5
0.405, -1.738e-5
0.404, -1.737e-5
0.403, -1.736e-5
0.402, -1.737e-5
0.401, -1.736e-5
0.400, -1.736e-5
0.399, -1.735e-5
0.398, -1.733e-5
0.397, -1.732e-5
0.396, -1.731e-5
0.395, -1.730e-5
0.394, -1.729e-5
0.393, -1.728e-5
0.392, -1.728e-5
0.391, -1.728e-5
0.390, -1.727e-5
0.389, -1.726e-5
0.388, -1.725e-5
0.387, -1.727e-5
0.386, -1.727e-5
0.385, -1.725e-5
0.384, -1.725e-5
0.383, -1.725e-5
0.382, -1.723e-5
0.381, -1.723e-5
0.380, -1.721e-5
0.379, -1.721e-5
0.378, -1.722e-5
0.377, -1.723e-5
0.376, -1.723e-5
0.375, -1.722e-5
0.374, -1.721e-5
0.373, -1.719e-5
0.372, -1.718e-5
0.371, -1.718e-5
0.370, -1.717e-5
0.369, -1.717e-5
0.368, -1.718e-5
0.367, -1.718e-5
0.366, -1.717e-5
0.365, -1.718e-5
0.364, -1.717e-5
0.363, -1.716e-5
0.362, -1.715e-5
0.361, -1.714e-5
0.360, -1.715e-5
0.359, -1.716e-5
0.358, -1.715e-5
0.357, -1.714e-5
0.356, -1.714e-5
0.355, -1.715e-5
0.354, -1.715e-5
0.353, -1.715e-5
0.352, -1.713e-5
0.351, -1.714e-5
0.350, -1.714e-5
0.349, -1.712e-5
0.348, -1.711e-5
0.347, -1.712e-5
0.346, -1.713e-5
0.345, -1.713e-5
0.344, -1.713e-5
0.343, -1.714e-5
0.342, -1.714e-5
0.341, -1.714e-5
0.340, -1.715e-5
0.339, -1.713e-5
0.338, -1.714e-5
0.337, -1.714e-5
0.336, -1.715e-5
0.335, -1.716e-5
0.334, -1.716e-5
0.333, -1.718e-5
0.332, -1.719e-5
0.331, -1.720e-5
0.330, -1.721e-5
0.329, -1.720e-5
0.328, -1.721e-5
0.327, -1.722e-5
0.326, -1.723e-5
0.325, -1.724e-5
0.324, -1.725e-5
0.323, -1.727e-5
0.322, -1.729e-5
0.321, -1.729e-5
0.320, -1.729e-5
0.319, -1.731e-5
0.318, -1.732e-5
0.317, -1.732e-5
0.316, -1.734e-5
0.315, -1.734e-5
0.314, -1.735e-5
0.313, -1.737e-5
0.312, -1.739e-5
0.311, -1.741e-5
0.310, -1.743e-5
0.309, -1.744e-5
0.308, -1.745e-5
0.307, -1.747e-5
0.306, -1.748e-5
0.305, -1.750e-5
0.304, -1.752e-5
0.303, -1.752e-5
0.302, -1.754e-5
0.301, -1.756e-5
0.300, -1.757e-5
0.299, -1.759e-5
0.298, -1.760e-5
0.297, -1.761e-5
0.296, -1.763e-5
0.295, -1.767e-5
0.294, -1.771e-5
0.293, -1.773e-5
0.292, -1.774e-5
0.291, -1.775e-5
0.290, -1.776e-5
0.289, -1.777e-5
0.288, -1.780e-5
0.287, -1.783e-5
0.286, -1.784e-5
0.285, -1.787e-5
0.284, -1.789e-5
0.283, -1.792e-5
0.282, -1.795e-5
0.281, -1.798e-5
0.280, -1.802e-5
0.279, -1.804e-5
0.278, -1.807e-5
0.277, -1.809e-5
0.276, -1.812e-5
0.275, -1.815e-5
0.274, -1.819e-5
0.273, -1.821e-5
0.272, -1.823e-5
0.271, -1.826e-5
0.270, -1.829e-5
0.269, -1.832e-5
0.268, -1.835e-5
0.267, -1.839e-5
0.266, -1.843e-5
0.265, -1.846e-5
0.264, -1.851e-5
0.263, -1.854e-5
0.262, -1.859e-5
0.261, -1.861e-5
0.260, -1.863e-5
0.259, -1.865e-5
0.258, -1.868e-5
0.257, -1.872e-5
0.256, -1.876e-5
0.255, -1.880e-5
0.254, -1.884e-5
0.253, -1.888e-5
0.252, -1.891e-5
0.251, -1.894e-5
0.250, -1.898e-5
0.249, -1.901e-5
0.248, -1.906e-5
0.247, -1.910e-5
0.246, -1.913e-5
0.245, -1.914e-5
0.244, -1.917e-5
0.243, -1.920e-5
0.242, -1.925e-5
0.241, -1.927e-5
0.240, -1.931e-5
0.239, -1.934e-5
0.238, -1.936e-5
0.237, -1.939e-5
0.236, -1.942e-5
0.235, -1.946e-5
0.234, -1.949e-5
0.233, -1.951e-5
0.232, -1.952e-5
0.231, -1.953e-5
0.230, -1.955e-5
0.229, -1.956e-5
0.228, -1.955e-5
0.227, -1.955e-5
0.226, -1.955e-5
0.225, -1.952e-5
0.224, -1.950e-5
0.223, -1.948e-5
0.222, -1.945e-5
0.221, -1.941e-5
0.220, -1.936e-5
0.219, -1.931e-5
0.218, -1.925e-5
0.217, -1.919e-5
0.216, -1.911e-5
0.215, -1.902e-5
0.214, -1.891e-5
0.213, -1.881e-5
0.212, -1.869e-5
0.211, -1.857e-5
0.210, -1.843e-5
0.209, -1.829e-5
0.208, -1.814e-5
0.207, -1.798e-5
0.206, -1.781e-5
0.205, -1.763e-5
0.204, -1.744e-5
0.203, -1.723e-5
0.202, -1.703e-5
0.201, -1.683e-5
0.200, -1.663e-5
0.199, -1.643e-5
0.198, -1.623e-5
0.197, -1.604e-5
0.196, -1.585e-5
0.195, -1.569e-5
0.194, -1.552e-5
0.193, -1.535e-5
0.192, -1.519e-5
0.191, -1.503e-5
0.190, -1.488e-5
0.189, -1.474e-5
0.188, -1.459e-5
0.187, -1.444e-5
0.186, -1.429e-5
0.185, -1.416e-5
0.184, -1.403e-5
0.183, -1.391e-5
0.182, -1.379e-5
0.181, -1.367e-5
0.180, -1.355e-5
0.179, -1.343e-5
0.178, -1.332e-5
0.177, -1.322e-5
0.176, -1.312e-5
0.175, -1.302e-5
0.174, -1.293e-5
0.173, -1.284e-5
0.172, -1.278e-5
0.171, -1.268e-5
0.170, -1.260e-5
0.169, -1.252e-5
0.168, -1.245e-5
0.167, -1.237e-5
0.166, -1.230e-5
0.165, -1.221e-5
0.164, -1.213e-5
0.163, -1.206e-5
0.162, -1.200e-5
0.161, -1.194e-5
0.160, -1.188e-5
0.159, -1.179e-5
0.158, -1.173e-5
0.157, -1.169e-5
0.156, -1.163e-5
0.155, -1.157e-5
0.154, -1.153e-5
0.153, -1.147e-5
0.152, -1.141e-5
0.151, -1.134e-5
0.150, -1.130e-5
0.149, -1.124e-5
0.148, -1.117e-5
0.147, -1.114e-5
0.146, -1.110e-5
0.145, -1.106e-5
0.144, -1.102e-5
0.143, -1.100e-5
0.142, -1.096e-5
0.141, -1.091e-5
0.140, -1.088e-5
0.139, -1.084e-5
0.138, -1.079e-5
0.137, -1.074e-5
0.136, -1.070e-5
0.135, -1.064e-5
0.134, -1.058e-5
0.133, -1.054e-5
0.132, -1.051e-5
0.131, -1.047e-5
0.130, -1.045e-5
0.129, -1.041e-5
0.128, -1.036e-5
0.127, -1.031e-5
0.126, -1.027e-5
0.125, -1.026e-5
0.124, -1.021e-5
0.123, -1.017e-5
0.122, -1.013e-5
0.121, -1.009e-5
0.120, -1.006e-5
0.119, -1.003e-5
0.118, -9.976e-6
0.117, -9.932e-6
0.116, -9.897e-6
0.115, -9.864e-6
0.114, -9.834e-6
0.113, -9.804e-6
0.112, -9.774e-6
0.111, -9.749e-6
0.110, -9.713e-6
0.109, -9.675e-6
0.108, -9.649e-6
0.107, -9.617e-6
0.106, -9.598e-6
0.105, -9.571e-6
0.104, -9.537e-6
0.103, -9.511e-6
0.102, -9.487e-6
0.101, -9.473e-6
0.100, -9.450e-6
0.099, -9.411e-6
0.098, -9.390e-6
0.097, -9.356e-6
0.096, -9.332e-6
0.095, -9.298e-6
0.094, -9.266e-6
0.093, -9.247e-6
0.092, -9.234e-6
0.091, -9.215e-6
0.090, -9.195e-6
0.089, -9.160e-6
0.088, -9.142e-6
0.087, -9.125e-6
0.086, -9.102e-6
0.085, -9.078e-6
0.084, -9.060e-6
0.083, -9.029e-6
0.082, -9.001e-6
0.081, -8.975e-6
0.080, -8.938e-6
0.079, -8.918e-6
0.078, -8.898e-6
0.077, -8.886e-6
0.076, -8.860e-6
0.075, -8.836e-6
0.074, -8.825e-6
0.073, -8.770e-6
0.072, -8.761e-6
0.071, -8.765e-6
0.070, -8.750e-6
0.069, -8.727e-6
0.068, -8.709e-6
0.067, -8.676e-6
0.066, -8.646e-6
0.065, -8.631e-6
0.064, -8.604e-6
0.063, -8.571e-6
0.062, -8.543e-6
0.061, -8.519e-6
0.060, -8.509e-6
0.059, -8.510e-6
0.058, -8.494e-6
0.057, -8.472e-6
0.056, -8.455e-6
0.055, -8.434e-6
0.054, -8.413e-6
0.053, -8.382e-6
0.052, -8.370e-6
0.051, -8.372e-6
0.050, -8.356e-6
0.049, -8.348e-6
0.048, -8.333e-6
0.047, -8.305e-6
0.046, -8.279e-6
0.045, -8.260e-6
0.044, -8.245e-6
0.043, -8.240e-6
0.042, -8.227e-6
0.041, -8.193e-6
0.040, -8.168e-6
0.039, -8.148e-6
0.038, -8.131e-6
0.037, -8.113e-6
0.036, -8.088e-6
0.035, -8.068e-6
0.034, -8.063e-6
0.033, -8.047e-6
0.032, -8.039e-6
0.031, -8.010e-6
0.030, -7.982e-6
0.029, -7.962e-6
0.028, -7.937e-6
0.027, -7.920e-6
0.026, -7.907e-6
0.025, -7.893e-6
0.024, -7.876e-6
0.023, -7.870e-6
0.022, -7.861e-6
0.021, -7.841e-6
0.020, -7.826e-6
0.019, -7.805e-6
0.018, -7.793e-6
0.017, -7.753e-6
0.016, -7.732e-6
0.015, -7.729e-6
0.014, -7.724e-6
0.013, -7.702e-6
0.012, -7.682e-6
0.011, -7.661e-6
0.010, -7.643e-6
0.009, -7.622e-6
0.008, -7.606e-6
0.007, -7.588e-6
0.006, -7.578e-6
0.005, -7.580e-6
0.004, -7.575e-6
0.003, -7.566e-6
0.002, -7.545e-6
0.001, -7.536e-6
