Dec. 2, 2021   21:07:58
Cyclic Voltammetry
File: d:\Data Source:  Experiment
Instrument Model:  CHI660E
Header: 
Note: 

Init E (V) = 0
High E (V) = 0.8
Low E (V) = 0
Init P/N = P
Scan Rate (V/s) = 0.05
Segment = 6
Sample Interval (V) = 0.001
Quiet Time (sec) = 0
Sensitivity (A/V) = 1e-4

Segment 1:

Segment 2:

Segment 3:

Segment 4:

Segment 5:

Segment 6:

Potential/V, Current/A

0.000, -4.874e-7
0.001, -4.006e-7
0.002, -3.546e-7
0.003, -3.264e-7
0.004, -3.043e-7
0.005, -2.864e-7
0.006, -2.684e-7
0.007, -2.554e-7
0.008, -2.421e-7
0.009, -2.285e-7
0.010, -2.171e-7
0.011, -2.072e-7
0.012, -1.959e-7
0.013, -1.873e-7
0.014, -1.786e-7
0.015, -1.704e-7
0.016, -1.616e-7
0.017, -1.533e-7
0.018, -1.449e-7
0.019, -1.356e-7
0.020, -1.294e-7
0.021, -1.225e-7
0.022, -1.168e-7
0.023, -1.104e-7
0.024, -1.042e-7
0.025, -9.754e-8
0.026, -9.086e-8
0.027, -8.358e-8
0.028, -7.719e-8
0.029, -7.188e-8
0.030, -6.785e-8
0.031, -6.235e-8
0.032, -5.606e-8
0.033, -5.016e-8
0.034, -4.416e-8
0.035, -3.866e-8
0.036, -3.354e-8
0.037, -3.128e-8
0.038, -2.647e-8
0.039, -2.057e-8
0.040, -1.821e-8
0.041, -1.545e-8
0.042, -1.123e-8
0.043, -7.295e-9
0.044, -1.691e-9
0.045, 2.045e-9
0.046, 5.781e-9
0.047, 1.011e-8
0.048, 1.483e-8
0.049, 1.994e-8
0.050, 2.495e-8
0.051, 2.957e-8
0.052, 3.331e-8
0.053, 3.753e-8
0.054, 4.039e-8
0.055, 4.324e-8
0.056, 4.569e-8
0.057, 4.953e-8
0.058, 5.376e-8
0.059, 5.710e-8
0.060, 6.074e-8
0.061, 6.457e-8
0.062, 6.781e-8
0.063, 7.194e-8
0.064, 7.627e-8
0.065, 7.902e-8
0.066, 8.246e-8
0.067, 8.561e-8
0.068, 8.777e-8
0.069, 9.170e-8
0.070, 9.583e-8
0.071, 1.008e-7
0.072, 1.045e-7
0.073, 1.082e-7
0.074, 1.104e-7
0.075, 1.124e-7
0.076, 1.163e-7
0.077, 1.202e-7
0.078, 1.248e-7
0.079, 1.274e-7
0.080, 1.316e-7
0.081, 1.347e-7
0.082, 1.368e-7
0.083, 1.402e-7
0.084, 1.438e-7
0.085, 1.455e-7
0.086, 1.488e-7
0.087, 1.529e-7
0.088, 1.558e-7
0.089, 1.600e-7
0.090, 1.652e-7
0.091, 1.675e-7
0.092, 1.711e-7
0.093, 1.750e-7
0.094, 1.776e-7
0.095, 1.798e-7
0.096, 1.828e-7
0.097, 1.879e-7
0.098, 1.896e-7
0.099, 1.922e-7
0.100, 1.964e-7
0.101, 1.989e-7
0.102, 2.035e-7
0.103, 2.074e-7
0.104, 2.116e-7
0.105, 2.151e-7
0.106, 2.175e-7
0.107, 2.212e-7
0.108, 2.246e-7
0.109, 2.278e-7
0.110, 2.300e-7
0.111, 2.335e-7
0.112, 2.375e-7
0.113, 2.415e-7
0.114, 2.439e-7
0.115, 2.489e-7
0.116, 2.531e-7
0.117, 2.548e-7
0.118, 2.581e-7
0.119, 2.620e-7
0.120, 2.643e-7
0.121, 2.686e-7
0.122, 2.728e-7
0.123, 2.749e-7
0.124, 2.792e-7
0.125, 2.817e-7
0.126, 2.862e-7
0.127, 2.895e-7
0.128, 2.936e-7
0.129, 2.977e-7
0.130, 3.010e-7
0.131, 3.051e-7
0.132, 3.088e-7
0.133, 3.122e-7
0.134, 3.172e-7
0.135, 3.206e-7
0.136, 3.251e-7
0.137, 3.301e-7
0.138, 3.342e-7
0.139, 3.361e-7
0.140, 3.407e-7
0.141, 3.475e-7
0.142, 3.506e-7
0.143, 3.552e-7
0.144, 3.608e-7
0.145, 3.650e-7
0.146, 3.662e-7
0.147, 3.714e-7
0.148, 3.760e-7
0.149, 3.798e-7
0.150, 3.859e-7
0.151, 3.913e-7
0.152, 3.952e-7
0.153, 4.008e-7
0.154, 4.074e-7
0.155, 4.112e-7
0.156, 4.145e-7
0.157, 4.175e-7
0.158, 4.233e-7
0.159, 4.272e-7
0.160, 4.324e-7
0.161, 4.391e-7
0.162, 4.434e-7
0.163, 4.472e-7
0.164, 4.523e-7
0.165, 4.567e-7
0.166, 4.608e-7
0.167, 4.656e-7
0.168, 4.710e-7
0.169, 4.769e-7
0.170, 4.812e-7
0.171, 4.854e-7
0.172, 4.921e-7
0.173, 4.979e-7
0.174, 5.024e-7
0.175, 5.072e-7
0.176, 5.120e-7
0.177, 5.172e-7
0.178, 5.232e-7
0.179, 5.297e-7
0.180, 5.355e-7
0.181, 5.397e-7
0.182, 5.461e-7
0.183, 5.526e-7
0.184, 5.584e-7
0.185, 5.641e-7
0.186, 5.695e-7
0.187, 5.751e-7
0.188, 5.802e-7
0.189, 5.869e-7
0.190, 5.935e-7
0.191, 5.960e-7
0.192, 6.023e-7
0.193, 6.100e-7
0.194, 6.155e-7
0.195, 6.221e-7
0.196, 6.285e-7
0.197, 6.340e-7
0.198, 6.396e-7
0.199, 6.444e-7
0.200, 6.507e-7
0.201, 6.584e-7
0.202, 6.628e-7
0.203, 6.699e-7
0.204, 6.768e-7
0.205, 6.842e-7
0.206, 6.902e-7
0.207, 6.957e-7
0.208, 7.020e-7
0.209, 7.087e-7
0.210, 7.163e-7
0.211, 7.236e-7
0.212, 7.291e-7
0.213, 7.342e-7
0.214, 7.418e-7
0.215, 7.484e-7
0.216, 7.548e-7
0.217, 7.624e-7
0.218, 7.696e-7
0.219, 7.758e-7
0.220, 7.841e-7
0.221, 7.912e-7
0.222, 7.992e-7
0.223, 8.065e-7
0.224, 8.142e-7
0.225, 8.222e-7
0.226, 8.283e-7
0.227, 8.358e-7
0.228, 8.443e-7
0.229, 8.514e-7
0.230, 8.589e-7
0.231, 8.688e-7
0.232, 8.770e-7
0.233, 8.858e-7
0.234, 8.934e-7
0.235, 9.015e-7
0.236, 9.110e-7
0.237, 9.189e-7
0.238, 9.272e-7
0.239, 9.363e-7
0.240, 9.444e-7
0.241, 9.524e-7
0.242, 9.618e-7
0.243, 9.712e-7
0.244, 9.801e-7
0.245, 9.876e-7
0.246, 9.986e-7
0.247, 1.007e-6
0.248, 1.017e-6
0.249, 1.026e-6
0.250, 1.034e-6
0.251, 1.043e-6
0.252, 1.053e-6
0.253, 1.064e-6
0.254, 1.074e-6
0.255, 1.082e-6
0.256, 1.092e-6
0.257, 1.102e-6
0.258, 1.111e-6
0.259, 1.120e-6
0.260, 1.131e-6
0.261, 1.140e-6
0.262, 1.151e-6
0.263, 1.162e-6
0.264, 1.172e-6
0.265, 1.182e-6
0.266, 1.192e-6
0.267, 1.203e-6
0.268, 1.213e-6
0.269, 1.223e-6
0.270, 1.233e-6
0.271, 1.243e-6
0.272, 1.254e-6
0.273, 1.264e-6
0.274, 1.274e-6
0.275, 1.285e-6
0.276, 1.297e-6
0.277, 1.306e-6
0.278, 1.317e-6
0.279, 1.327e-6
0.280, 1.338e-6
0.281, 1.350e-6
0.282, 1.361e-6
0.283, 1.372e-6
0.284, 1.383e-6
0.285, 1.394e-6
0.286, 1.406e-6
0.287, 1.420e-6
0.288, 1.433e-6
0.289, 1.444e-6
0.290, 1.457e-6
0.291, 1.471e-6
0.292, 1.485e-6
0.293, 1.497e-6
0.294, 1.512e-6
0.295, 1.527e-6
0.296, 1.539e-6
0.297, 1.556e-6
0.298, 1.569e-6
0.299, 1.585e-6
0.300, 1.600e-6
0.301, 1.615e-6
0.302, 1.631e-6
0.303, 1.646e-6
0.304, 1.663e-6
0.305, 1.682e-6
0.306, 1.700e-6
0.307, 1.720e-6
0.308, 1.740e-6
0.309, 1.758e-6
0.310, 1.778e-6
0.311, 1.797e-6
0.312, 1.818e-6
0.313, 1.839e-6
0.314, 1.860e-6
0.315, 1.881e-6
0.316, 1.904e-6
0.317, 1.925e-6
0.318, 1.947e-6
0.319, 1.971e-6
0.320, 1.996e-6
0.321, 2.020e-6
0.322, 2.045e-6
0.323, 2.074e-6
0.324, 2.101e-6
0.325, 2.127e-6
0.326, 2.157e-6
0.327, 2.187e-6
0.328, 2.218e-6
0.329, 2.249e-6
0.330, 2.282e-6
0.331, 2.316e-6
0.332, 2.352e-6
0.333, 2.387e-6
0.334, 2.423e-6
0.335, 2.460e-6
0.336, 2.497e-6
0.337, 2.538e-6
0.338, 2.578e-6
0.339, 2.621e-6
0.340, 2.663e-6
0.341, 2.706e-6
0.342, 2.752e-6
0.343, 2.797e-6
0.344, 2.844e-6
0.345, 2.893e-6
0.346, 2.944e-6
0.347, 2.998e-6
0.348, 3.055e-6
0.349, 3.110e-6
0.350, 3.166e-6
0.351, 3.226e-6
0.352, 3.289e-6
0.353, 3.353e-6
0.354, 3.416e-6
0.355, 3.482e-6
0.356, 3.548e-6
0.357, 3.619e-6
0.358, 3.695e-6
0.359, 3.772e-6
0.360, 3.850e-6
0.361, 3.935e-6
0.362, 4.019e-6
0.363, 4.108e-6
0.364, 4.197e-6
0.365, 4.290e-6
0.366, 4.387e-6
0.367, 4.483e-6
0.368, 4.585e-6
0.369, 4.691e-6
0.370, 4.802e-6
0.371, 4.916e-6
0.372, 5.035e-6
0.373, 5.155e-6
0.374, 5.277e-6
0.375, 5.403e-6
0.376, 5.532e-6
0.377, 5.668e-6
0.378, 5.806e-6
0.379, 5.949e-6
0.380, 6.097e-6
0.381, 6.250e-6
0.382, 6.406e-6
0.383, 6.563e-6
0.384, 6.727e-6
0.385, 6.897e-6
0.386, 7.069e-6
0.387, 7.253e-6
0.388, 7.437e-6
0.389, 7.623e-6
0.390, 7.813e-6
0.391, 8.005e-6
0.392, 8.203e-6
0.393, 8.404e-6
0.394, 8.608e-6
0.395, 8.818e-6
0.396, 9.031e-6
0.397, 9.245e-6
0.398, 9.462e-6
0.399, 9.684e-6
0.400, 9.909e-6
0.401, 1.014e-5
0.402, 1.037e-5
0.403, 1.061e-5
0.404, 1.086e-5
0.405, 1.110e-5
0.406, 1.134e-5
0.407, 1.159e-5
0.408, 1.184e-5
0.409, 1.210e-5
0.410, 1.235e-5
0.411, 1.262e-5
0.412, 1.288e-5
0.413, 1.315e-5
0.414, 1.342e-5
0.415, 1.369e-5
0.416, 1.397e-5
0.417, 1.425e-5
0.418, 1.453e-5
0.419, 1.482e-5
0.420, 1.511e-5
0.421, 1.540e-5
0.422, 1.569e-5
0.423, 1.599e-5
0.424, 1.629e-5
0.425, 1.659e-5
0.426, 1.690e-5
0.427, 1.721e-5
0.428, 1.752e-5
0.429, 1.784e-5
0.430, 1.816e-5
0.431, 1.848e-5
0.432, 1.882e-5
0.433, 1.915e-5
0.434, 1.949e-5
0.435, 1.983e-5
0.436, 2.017e-5
0.437, 2.052e-5
0.438, 2.088e-5
0.439, 2.123e-5
0.440, 2.160e-5
0.441, 2.198e-5
0.442, 2.235e-5
0.443, 2.273e-5
0.444, 2.313e-5
0.445, 2.351e-5
0.446, 2.391e-5
0.447, 2.432e-5
0.448, 2.473e-5
0.449, 2.515e-5
0.450, 2.557e-5
0.451, 2.599e-5
0.452, 2.642e-5
0.453, 2.685e-5
0.454, 2.729e-5
0.455, 2.773e-5
0.456, 2.818e-5
0.457, 2.864e-5
0.458, 2.911e-5
0.459, 2.957e-5
0.460, 3.004e-5
0.461, 3.052e-5
0.462, 3.101e-5
0.463, 3.149e-5
0.464, 3.200e-5
0.465, 3.252e-5
0.466, 3.303e-5
0.467, 3.356e-5
0.468, 3.408e-5
0.469, 3.461e-5
0.470, 3.515e-5
0.471, 3.568e-5
0.472, 3.624e-5
0.473, 3.680e-5
0.474, 3.736e-5
0.475, 3.793e-5
0.476, 3.852e-5
0.477, 3.911e-5
0.478, 3.969e-5
0.479, 4.027e-5
0.480, 4.087e-5
0.481, 4.148e-5
0.482, 4.210e-5
0.483, 4.270e-5
0.484, 4.330e-5
0.485, 4.393e-5
0.486, 4.460e-5
0.487, 4.524e-5
0.488, 4.588e-5
0.489, 4.653e-5
0.490, 4.719e-5
0.491, 4.784e-5
0.492, 4.853e-5
0.493, 4.921e-5
0.494, 4.988e-5
0.495, 5.057e-5
0.496, 5.124e-5
0.497, 5.192e-5
0.498, 5.263e-5
0.499, 5.333e-5
0.500, 5.406e-5
0.501, 5.478e-5
0.502, 5.552e-5
0.503, 5.626e-5
0.504, 5.701e-5
0.505, 5.775e-5
0.506, 5.851e-5
0.507, 5.929e-5
0.508, 6.005e-5
0.509, 6.083e-5
0.510, 6.163e-5
0.511, 6.242e-5
0.512, 6.321e-5
0.513, 6.399e-5
0.514, 6.479e-5
0.515, 6.557e-5
0.516, 6.636e-5
0.517, 6.718e-5
0.518, 6.798e-5
0.519, 6.877e-5
0.520, 6.958e-5
0.521, 7.041e-5
0.522, 7.122e-5
0.523, 7.203e-5
0.524, 7.284e-5
0.525, 7.367e-5
0.526, 7.450e-5
0.527, 7.532e-5
0.528, 7.619e-5
0.529, 7.704e-5
0.530, 7.786e-5
0.531, 7.871e-5
0.532, 7.957e-5
0.533, 8.043e-5
0.534, 8.131e-5
0.535, 8.217e-5
0.536, 8.304e-5
0.537, 8.391e-5
0.538, 8.481e-5
0.539, 8.568e-5
0.540, 8.655e-5
0.541, 8.744e-5
0.542, 8.829e-5
0.543, 8.919e-5
0.544, 9.011e-5
0.545, 9.101e-5
0.546, 9.192e-5
0.547, 9.279e-5
0.548, 9.368e-5
0.549, 9.460e-5
0.550, 9.552e-5
0.551, 9.642e-5
0.552, 9.733e-5
0.553, 9.825e-5
0.554, 9.915e-5
0.555, 1.001e-4
0.556, 1.010e-4
0.557, 1.019e-4
0.558, 1.029e-4
0.559, 1.038e-4
0.560, 1.047e-4
0.561, 1.056e-4
0.562, 1.065e-4
0.563, 1.074e-4
0.564, 1.084e-4
0.565, 1.092e-4
0.566, 1.101e-4
0.567, 1.110e-4
0.568, 1.120e-4
0.569, 1.129e-4
0.570, 1.138e-4
0.571, 1.148e-4
0.572, 1.157e-4
0.573, 1.166e-4
0.574, 1.175e-4
0.575, 1.184e-4
0.576, 1.193e-4
0.577, 1.202e-4
0.578, 1.211e-4
0.579, 1.219e-4
0.580, 1.228e-4
0.581, 1.237e-4
0.582, 1.246e-4
0.583, 1.256e-4
0.584, 1.265e-4
0.585, 1.274e-4
0.586, 1.284e-4
0.587, 1.293e-4
0.588, 1.301e-4
0.589, 1.310e-4
0.590, 1.320e-4
0.591, 1.329e-4
0.592, 1.338e-4
0.593, 1.347e-4
0.594, 1.356e-4
0.595, 1.365e-4
0.596, 1.374e-4
0.597, 1.382e-4
0.598, 1.391e-4
0.599, 1.400e-4
0.600, 1.409e-4
0.601, 1.418e-4
0.602, 1.428e-4
0.603, 1.437e-4
0.604, 1.446e-4
0.605, 1.454e-4
0.606, 1.464e-4
0.607, 1.473e-4
0.608, 1.482e-4
0.609, 1.491e-4
0.610, 1.499e-4
0.611, 1.508e-4
0.612, 1.518e-4
0.613, 1.526e-4
0.614, 1.535e-4
0.615, 1.544e-4
0.616, 1.553e-4
0.617, 1.562e-4
0.618, 1.572e-4
0.619, 1.581e-4
0.620, 1.589e-4
0.621, 1.598e-4
0.622, 1.607e-4
0.623, 1.616e-4
0.624, 1.625e-4
0.625, 1.634e-4
0.626, 1.644e-4
0.627, 1.653e-4
0.628, 1.662e-4
0.629, 1.671e-4
0.630, 1.679e-4
0.631, 1.689e-4
0.632, 1.698e-4
0.633, 1.707e-4
0.634, 1.715e-4
0.635, 1.724e-4
0.636, 1.734e-4
0.637, 1.743e-4
0.638, 1.752e-4
0.639, 1.761e-4
0.640, 1.770e-4
0.641, 1.780e-4
0.642, 1.790e-4
0.643, 1.799e-4
0.644, 1.809e-4
0.645, 1.819e-4
0.646, 1.828e-4
0.647, 1.837e-4
0.648, 1.848e-4
0.649, 1.858e-4
0.650, 1.867e-4
0.651, 1.876e-4
0.652, 1.885e-4
0.653, 1.894e-4
0.654, 1.904e-4
0.655, 1.913e-4
0.656, 1.923e-4
0.657, 1.933e-4
0.658, 1.942e-4
0.659, 1.951e-4
0.660, 1.960e-4
0.661, 1.970e-4
0.662, 1.979e-4
0.663, 1.987e-4
0.664, 1.996e-4
0.665, 2.006e-4
0.666, 2.016e-4
0.667, 2.025e-4
0.668, 2.034e-4
0.669, 2.043e-4
0.670, 2.052e-4
0.671, 2.061e-4
0.672, 2.070e-4
0.673, 2.079e-4
0.674, 2.087e-4
0.675, 2.097e-4
0.676, 2.106e-4
0.677, 2.115e-4
0.678, 2.124e-4
0.679, 2.133e-4
0.680, 2.142e-4
0.681, 2.152e-4
0.682, 2.161e-4
0.683, 2.170e-4
0.684, 2.180e-4
0.685, 2.189e-4
0.686, 2.198e-4
0.687, 2.208e-4
0.688, 2.217e-4
0.689, 2.225e-4
0.690, 2.234e-4
0.691, 2.243e-4
0.692, 2.251e-4
0.693, 2.260e-4
0.694, 2.271e-4
0.695, 2.280e-4
0.696, 2.289e-4
0.697, 2.298e-4
0.698, 2.307e-4
0.699, 2.315e-4
0.700, 2.324e-4
0.701, 2.333e-4
0.702, 2.342e-4
0.703, 2.350e-4
0.704, 2.359e-4
0.705, 2.369e-4
0.706, 2.378e-4
0.707, 2.387e-4
0.708, 2.395e-4
0.709, 2.404e-4
0.710, 2.412e-4
0.711, 2.419e-4
0.712, 2.427e-4
0.713, 2.436e-4
0.714, 2.444e-4
0.715, 2.453e-4
0.716, 2.460e-4
0.717, 2.469e-4
0.718, 2.478e-4
0.719, 2.487e-4
0.720, 2.494e-4
0.721, 2.503e-4
0.722, 2.513e-4
0.723, 2.522e-4
0.724, 2.531e-4
0.725, 2.540e-4
0.726, 2.549e-4
0.727, 2.558e-4
0.728, 2.568e-4
0.729, 2.578e-4
0.730, 2.587e-4
0.731, 2.596e-4
0.732, 2.605e-4
0.733, 2.614e-4
0.734, 2.623e-4
0.735, 2.632e-4
0.736, 2.641e-4
0.737, 2.650e-4
0.738, 2.659e-4
0.739, 2.668e-4
0.740, 2.676e-4
0.741, 2.684e-4
0.742, 2.693e-4
0.743, 2.704e-4
0.744, 2.714e-4
0.745, 2.723e-4
0.746, 2.732e-4
0.747, 2.743e-4
0.748, 2.752e-4
0.749, 2.761e-4
0.750, 2.771e-4
0.751, 2.781e-4
0.752, 2.792e-4
0.753, 2.802e-4
0.754, 2.811e-4
0.755, 2.821e-4
0.756, 2.830e-4
0.757, 2.840e-4
0.758, 2.849e-4
0.759, 2.859e-4
0.760, 2.868e-4
0.761, 2.878e-4
0.762, 2.889e-4
0.763, 2.899e-4
0.764, 2.910e-4
0.765, 2.919e-4
0.766, 2.931e-4
0.767, 2.942e-4
0.768, 2.952e-4
0.769, 2.963e-4
0.770, 2.972e-4
0.771, 2.982e-4
0.772, 2.992e-4
0.773, 3.003e-4
0.774, 3.013e-4
0.775, 3.023e-4
0.776, 3.033e-4
0.777, 3.043e-4
0.778, 3.055e-4
0.779, 3.065e-4
0.780, 3.076e-4
0.781, 3.088e-4
0.782, 3.099e-4
0.783, 3.108e-4
0.784, 3.119e-4
0.785, 3.129e-4
0.786, 3.139e-4
0.787, 3.151e-4
0.788, 3.162e-4
0.789, 3.172e-4
0.790, 3.184e-4
0.791, 3.196e-4
0.792, 3.207e-4
0.793, 3.219e-4
0.794, 3.230e-4
0.795, 3.240e-4
0.796, 3.252e-4
0.797, 3.263e-4
0.798, 3.275e-4
0.799, 3.286e-4
0.800, 3.292e-4
0.799, 3.270e-4
0.798, 3.233e-4
0.797, 3.197e-4
0.796, 3.162e-4
0.795, 3.128e-4
0.794, 3.095e-4
0.793, 3.063e-4
0.792, 3.030e-4
0.791, 2.999e-4
0.790, 2.968e-4
0.789, 2.937e-4
0.788, 2.907e-4
0.787, 2.878e-4
0.786, 2.849e-4
0.785, 2.820e-4
0.784, 2.791e-4
0.783, 2.764e-4
0.782, 2.736e-4
0.781, 2.709e-4
0.780, 2.682e-4
0.779, 2.655e-4
0.778, 2.628e-4
0.777, 2.602e-4
0.776, 2.575e-4
0.775, 2.550e-4
0.774, 2.525e-4
0.773, 2.499e-4
0.772, 2.475e-4
0.771, 2.453e-4
0.770, 2.430e-4
0.769, 2.406e-4
0.768, 2.382e-4
0.767, 2.359e-4
0.766, 2.336e-4
0.765, 2.312e-4
0.764, 2.289e-4
0.763, 2.267e-4
0.762, 2.246e-4
0.761, 2.224e-4
0.760, 2.202e-4
0.759, 2.179e-4
0.758, 2.157e-4
0.757, 2.136e-4
0.756, 2.116e-4
0.755, 2.096e-4
0.754, 2.075e-4
0.753, 2.056e-4
0.752, 2.036e-4
0.751, 2.016e-4
0.750, 1.996e-4
0.749, 1.977e-4
0.748, 1.958e-4
0.747, 1.940e-4
0.746, 1.921e-4
0.745, 1.902e-4
0.744, 1.883e-4
0.743, 1.865e-4
0.742, 1.848e-4
0.741, 1.831e-4
0.740, 1.813e-4
0.739, 1.795e-4
0.738, 1.778e-4
0.737, 1.760e-4
0.736, 1.743e-4
0.735, 1.726e-4
0.734, 1.711e-4
0.733, 1.694e-4
0.732, 1.678e-4
0.731, 1.663e-4
0.730, 1.647e-4
0.729, 1.631e-4
0.728, 1.616e-4
0.727, 1.601e-4
0.726, 1.586e-4
0.725, 1.570e-4
0.724, 1.556e-4
0.723, 1.541e-4
0.722, 1.527e-4
0.721, 1.512e-4
0.720, 1.497e-4
0.719, 1.482e-4
0.718, 1.468e-4
0.717, 1.454e-4
0.716, 1.440e-4
0.715, 1.427e-4
0.714, 1.414e-4
0.713, 1.400e-4
0.712, 1.387e-4
0.711, 1.375e-4
0.710, 1.362e-4
0.709, 1.350e-4
0.708, 1.337e-4
0.707, 1.324e-4
0.706, 1.310e-4
0.705, 1.298e-4
0.704, 1.285e-4
0.703, 1.274e-4
0.702, 1.262e-4
0.701, 1.250e-4
0.700, 1.238e-4
0.699, 1.226e-4
0.698, 1.215e-4
0.697, 1.204e-4
0.696, 1.193e-4
0.695, 1.181e-4
0.694, 1.170e-4
0.693, 1.159e-4
0.692, 1.148e-4
0.691, 1.138e-4
0.690, 1.128e-4
0.689, 1.117e-4
0.688, 1.107e-4
0.687, 1.097e-4
0.686, 1.086e-4
0.685, 1.075e-4
0.684, 1.065e-4
0.683, 1.055e-4
0.682, 1.045e-4
0.681, 1.035e-4
0.680, 1.026e-4
0.679, 1.017e-4
0.678, 1.007e-4
0.677, 9.974e-5
0.676, 9.877e-5
0.675, 9.782e-5
0.674, 9.694e-5
0.673, 9.605e-5
0.672, 9.512e-5
0.671, 9.419e-5
0.670, 9.326e-5
0.669, 9.243e-5
0.668, 9.161e-5
0.667, 9.075e-5
0.666, 8.990e-5
0.665, 8.903e-5
0.664, 8.823e-5
0.663, 8.742e-5
0.662, 8.661e-5
0.661, 8.585e-5
0.660, 8.509e-5
0.659, 8.431e-5
0.658, 8.350e-5
0.657, 8.266e-5
0.656, 8.191e-5
0.655, 8.115e-5
0.654, 8.042e-5
0.653, 7.967e-5
0.652, 7.895e-5
0.651, 7.818e-5
0.650, 7.743e-5
0.649, 7.669e-5
0.648, 7.593e-5
0.647, 7.520e-5
0.646, 7.452e-5
0.645, 7.386e-5
0.644, 7.313e-5
0.643, 7.242e-5
0.642, 7.175e-5
0.641, 7.112e-5
0.640, 7.041e-5
0.639, 6.971e-5
0.638, 6.906e-5
0.637, 6.842e-5
0.636, 6.777e-5
0.635, 6.714e-5
0.634, 6.649e-5
0.633, 6.579e-5
0.632, 6.510e-5
0.631, 6.447e-5
0.630, 6.388e-5
0.629, 6.329e-5
0.628, 6.266e-5
0.627, 6.204e-5
0.626, 6.142e-5
0.625, 6.082e-5
0.624, 6.021e-5
0.623, 5.959e-5
0.622, 5.901e-5
0.621, 5.845e-5
0.620, 5.790e-5
0.619, 5.730e-5
0.618, 5.672e-5
0.617, 5.615e-5
0.616, 5.561e-5
0.615, 5.508e-5
0.614, 5.453e-5
0.613, 5.396e-5
0.612, 5.345e-5
0.611, 5.292e-5
0.610, 5.239e-5
0.609, 5.188e-5
0.608, 5.138e-5
0.607, 5.092e-5
0.606, 5.043e-5
0.605, 4.988e-5
0.604, 4.939e-5
0.603, 4.891e-5
0.602, 4.840e-5
0.601, 4.789e-5
0.600, 4.739e-5
0.599, 4.692e-5
0.598, 4.644e-5
0.597, 4.595e-5
0.596, 4.547e-5
0.595, 4.498e-5
0.594, 4.453e-5
0.593, 4.407e-5
0.592, 4.360e-5
0.591, 4.317e-5
0.590, 4.269e-5
0.589, 4.224e-5
0.588, 4.180e-5
0.587, 4.138e-5
0.586, 4.095e-5
0.585, 4.050e-5
0.584, 4.008e-5
0.583, 3.964e-5
0.582, 3.921e-5
0.581, 3.878e-5
0.580, 3.834e-5
0.579, 3.794e-5
0.578, 3.754e-5
0.577, 3.716e-5
0.576, 3.674e-5
0.575, 3.636e-5
0.574, 3.598e-5
0.573, 3.559e-5
0.572, 3.523e-5
0.571, 3.485e-5
0.570, 3.447e-5
0.569, 3.406e-5
0.568, 3.366e-5
0.567, 3.327e-5
0.566, 3.289e-5
0.565, 3.252e-5
0.564, 3.216e-5
0.563, 3.180e-5
0.562, 3.144e-5
0.561, 3.109e-5
0.560, 3.072e-5
0.559, 3.035e-5
0.558, 3.000e-5
0.557, 2.964e-5
0.556, 2.928e-5
0.555, 2.894e-5
0.554, 2.861e-5
0.553, 2.829e-5
0.552, 2.798e-5
0.551, 2.765e-5
0.550, 2.733e-5
0.549, 2.700e-5
0.548, 2.669e-5
0.547, 2.638e-5
0.546, 2.608e-5
0.545, 2.579e-5
0.544, 2.549e-5
0.543, 2.518e-5
0.542, 2.488e-5
0.541, 2.457e-5
0.540, 2.427e-5
0.539, 2.394e-5
0.538, 2.363e-5
0.537, 2.333e-5
0.536, 2.305e-5
0.535, 2.275e-5
0.534, 2.248e-5
0.533, 2.221e-5
0.532, 2.193e-5
0.531, 2.163e-5
0.530, 2.135e-5
0.529, 2.109e-5
0.528, 2.082e-5
0.527, 2.055e-5
0.526, 2.028e-5
0.525, 2.002e-5
0.524, 1.976e-5
0.523, 1.950e-5
0.522, 1.925e-5
0.521, 1.903e-5
0.520, 1.879e-5
0.519, 1.854e-5
0.518, 1.829e-5
0.517, 1.805e-5
0.516, 1.781e-5
0.515, 1.759e-5
0.514, 1.735e-5
0.513, 1.712e-5
0.512, 1.688e-5
0.511, 1.665e-5
0.510, 1.644e-5
0.509, 1.620e-5
0.508, 1.597e-5
0.507, 1.575e-5
0.506, 1.554e-5
0.505, 1.534e-5
0.504, 1.511e-5
0.503, 1.490e-5
0.502, 1.469e-5
0.501, 1.448e-5
0.500, 1.428e-5
0.499, 1.407e-5
0.498, 1.386e-5
0.497, 1.367e-5
0.496, 1.347e-5
0.495, 1.327e-5
0.494, 1.308e-5
0.493, 1.288e-5
0.492, 1.267e-5
0.491, 1.247e-5
0.490, 1.227e-5
0.489, 1.208e-5
0.488, 1.189e-5
0.487, 1.172e-5
0.486, 1.154e-5
0.485, 1.137e-5
0.484, 1.119e-5
0.483, 1.101e-5
0.482, 1.082e-5
0.481, 1.065e-5
0.480, 1.047e-5
0.479, 1.028e-5
0.478, 1.010e-5
0.477, 9.932e-6
0.476, 9.770e-6
0.475, 9.597e-6
0.474, 9.421e-6
0.473, 9.259e-6
0.472, 9.090e-6
0.471, 8.917e-6
0.470, 8.754e-6
0.469, 8.591e-6
0.468, 8.437e-6
0.467, 8.277e-6
0.466, 8.118e-6
0.465, 7.961e-6
0.464, 7.807e-6
0.463, 7.650e-6
0.462, 7.493e-6
0.461, 7.330e-6
0.460, 7.180e-6
0.459, 7.034e-6
0.458, 6.885e-6
0.457, 6.735e-6
0.456, 6.586e-6
0.455, 6.440e-6
0.454, 6.289e-6
0.453, 6.147e-6
0.452, 6.027e-6
0.451, 5.891e-6
0.450, 5.751e-6
0.449, 5.612e-6
0.448, 5.471e-6
0.447, 5.327e-6
0.446, 5.189e-6
0.445, 5.046e-6
0.444, 4.906e-6
0.443, 4.764e-6
0.442, 4.624e-6
0.441, 4.491e-6
0.440, 4.358e-6
0.439, 4.229e-6
0.438, 4.106e-6
0.437, 3.973e-6
0.436, 3.840e-6
0.435, 3.711e-6
0.434, 3.583e-6
0.433, 3.464e-6
0.432, 3.340e-6
0.431, 3.220e-6
0.430, 3.100e-6
0.429, 2.978e-6
0.428, 2.855e-6
0.427, 2.738e-6
0.426, 2.619e-6
0.425, 2.500e-6
0.424, 2.375e-6
0.423, 2.253e-6
0.422, 2.139e-6
0.421, 2.025e-6
0.420, 1.920e-6
0.419, 1.809e-6
0.418, 1.695e-6
0.417, 1.589e-6
0.416, 1.480e-6
0.415, 1.368e-6
0.414, 1.260e-6
0.413, 1.150e-6
0.412, 1.042e-6
0.411, 9.299e-7
0.410, 8.216e-7
0.409, 7.174e-7
0.408, 6.135e-7
0.407, 5.093e-7
0.406, 4.089e-7
0.405, 3.042e-7
0.404, 2.063e-7
0.403, 1.019e-7
0.402, -1.298e-9
0.401, -1.000e-7
0.400, -1.991e-7
0.399, -2.908e-7
0.398, -3.867e-7
0.397, -4.833e-7
0.396, -5.833e-7
0.395, -6.794e-7
0.394, -7.809e-7
0.393, -8.787e-7
0.392, -9.743e-7
0.391, -1.071e-6
0.390, -1.165e-6
0.389, -1.261e-6
0.388, -1.347e-6
0.387, -1.439e-6
0.386, -1.530e-6
0.385, -1.619e-6
0.384, -1.714e-6
0.383, -1.807e-6
0.382, -1.895e-6
0.381, -1.985e-6
0.380, -2.076e-6
0.379, -2.163e-6
0.378, -2.252e-6
0.377, -2.342e-6
0.376, -2.432e-6
0.375, -2.520e-6
0.374, -2.602e-6
0.373, -2.685e-6
0.372, -2.765e-6
0.371, -2.851e-6
0.370, -2.940e-6
0.369, -3.019e-6
0.368, -3.104e-6
0.367, -3.187e-6
0.366, -3.264e-6
0.365, -3.348e-6
0.364, -3.432e-6
0.363, -3.513e-6
0.362, -3.589e-6
0.361, -3.664e-6
0.360, -3.740e-6
0.359, -3.816e-6
0.358, -3.899e-6
0.357, -3.979e-6
0.356, -4.054e-6
0.355, -4.133e-6
0.354, -4.213e-6
0.353, -4.287e-6
0.352, -4.366e-6
0.351, -4.443e-6
0.350, -4.518e-6
0.349, -4.591e-6
0.348, -4.667e-6
0.347, -4.745e-6
0.346, -4.824e-6
0.345, -4.902e-6
0.344, -4.977e-6
0.343, -5.047e-6
0.342, -5.118e-6
0.341, -5.197e-6
0.340, -5.276e-6
0.339, -5.365e-6
0.338, -5.437e-6
0.337, -5.497e-6
0.336, -5.572e-6
0.335, -5.643e-6
0.334, -5.707e-6
0.333, -5.776e-6
0.332, -5.851e-6
0.331, -5.918e-6
0.330, -5.987e-6
0.329, -6.053e-6
0.328, -6.121e-6
0.327, -6.191e-6
0.326, -6.257e-6
0.325, -6.338e-6
0.324, -6.406e-6
0.323, -6.470e-6
0.322, -6.535e-6
0.321, -6.597e-6
0.320, -6.668e-6
0.319, -6.729e-6
0.318, -6.793e-6
0.317, -6.861e-6
0.316, -6.925e-6
0.315, -6.985e-6
0.314, -7.055e-6
0.313, -7.129e-6
0.312, -7.196e-6
0.311, -7.257e-6
0.310, -7.317e-6
0.309, -7.384e-6
0.308, -7.443e-6
0.307, -7.515e-6
0.306, -7.583e-6
0.305, -7.644e-6
0.304, -7.709e-6
0.303, -7.771e-6
0.302, -7.833e-6
0.301, -7.889e-6
0.300, -7.945e-6
0.299, -8.013e-6
0.298, -8.077e-6
0.297, -8.142e-6
0.296, -8.205e-6
0.295, -8.272e-6
0.294, -8.329e-6
0.293, -8.389e-6
0.292, -8.440e-6
0.291, -8.498e-6
0.290, -8.556e-6
0.289, -8.594e-6
0.288, -8.650e-6
0.287, -8.707e-6
0.286, -8.760e-6
0.285, -8.820e-6
0.284, -8.880e-6
0.283, -8.934e-6
0.282, -8.998e-6
0.281, -9.043e-6
0.280, -9.101e-6
0.279, -9.151e-6
0.278, -9.196e-6
0.277, -9.252e-6
0.276, -9.315e-6
0.275, -9.361e-6
0.274, -9.405e-6
0.273, -9.454e-6
0.272, -9.499e-6
0.271, -9.542e-6
0.270, -9.592e-6
0.269, -9.641e-6
0.268, -9.689e-6
0.267, -9.737e-6
0.266, -9.788e-6
0.265, -9.818e-6
0.264, -9.841e-6
0.263, -9.886e-6
0.262, -9.943e-6
0.261, -9.992e-6
0.260, -1.003e-5
0.259, -1.008e-5
0.258, -1.012e-5
0.257, -1.017e-5
0.256, -1.022e-5
0.255, -1.025e-5
0.254, -1.027e-5
0.253, -1.031e-5
0.252, -1.034e-5
0.251, -1.037e-5
0.250, -1.040e-5
0.249, -1.043e-5
0.248, -1.045e-5
0.247, -1.048e-5
0.246, -1.050e-5
0.245, -1.052e-5
0.244, -1.055e-5
0.243, -1.057e-5
0.242, -1.059e-5
0.241, -1.062e-5
0.240, -1.064e-5
0.239, -1.065e-5
0.238, -1.067e-5
0.237, -1.069e-5
0.236, -1.071e-5
0.235, -1.073e-5
0.234, -1.074e-5
0.233, -1.074e-5
0.232, -1.074e-5
0.231, -1.071e-5
0.230, -1.071e-5
0.229, -1.072e-5
0.228, -1.071e-5
0.227, -1.072e-5
0.226, -1.072e-5
0.225, -1.071e-5
0.224, -1.070e-5
0.223, -1.069e-5
0.222, -1.067e-5
0.221, -1.066e-5
0.220, -1.064e-5
0.219, -1.061e-5
0.218, -1.060e-5
0.217, -1.057e-5
0.216, -1.055e-5
0.215, -1.052e-5
0.214, -1.047e-5
0.213, -1.043e-5
0.212, -1.039e-5
0.211, -1.032e-5
0.210, -1.026e-5
0.209, -1.021e-5
0.208, -1.017e-5
0.207, -1.012e-5
0.206, -1.006e-5
0.205, -1.000e-5
0.204, -9.949e-6
0.203, -9.896e-6
0.202, -9.844e-6
0.201, -9.780e-6
0.200, -9.734e-6
0.199, -9.696e-6
0.198, -9.652e-6
0.197, -9.615e-6
0.196, -9.559e-6
0.195, -9.507e-6
0.194, -9.448e-6
0.193, -9.399e-6
0.192, -9.361e-6
0.191, -9.312e-6
0.190, -9.273e-6
0.189, -9.232e-6
0.188, -9.180e-6
0.187, -9.128e-6
0.186, -9.090e-6
0.185, -9.047e-6
0.184, -9.006e-6
0.183, -8.962e-6
0.182, -8.898e-6
0.181, -8.852e-6
0.180, -8.813e-6
0.179, -8.778e-6
0.178, -8.722e-6
0.177, -8.664e-6
0.176, -8.624e-6
0.175, -8.595e-6
0.174, -8.570e-6
0.173, -8.528e-6
0.172, -8.483e-6
0.171, -8.456e-6
0.170, -8.418e-6
0.169, -8.381e-6
0.168, -8.331e-6
0.167, -8.289e-6
0.166, -8.247e-6
0.165, -8.193e-6
0.164, -8.154e-6
0.163, -8.117e-6
0.162, -8.081e-6
0.161, -8.030e-6
0.160, -7.973e-6
0.159, -7.948e-6
0.158, -7.924e-6
0.157, -7.886e-6
0.156, -7.850e-6
0.155, -7.815e-6
0.154, -7.777e-6
0.153, -7.749e-6
0.152, -7.719e-6
0.151, -7.675e-6
0.150, -7.635e-6
0.149, -7.603e-6
0.148, -7.554e-6
0.147, -7.508e-6
0.146, -7.470e-6
0.145, -7.430e-6
0.144, -7.397e-6
0.143, -7.367e-6
0.142, -7.324e-6
0.141, -7.292e-6
0.140, -7.267e-6
0.139, -7.237e-6
0.138, -7.227e-6
0.137, -7.201e-6
0.136, -7.169e-6
0.135, -7.137e-6
0.134, -7.092e-6
0.133, -7.054e-6
0.132, -7.022e-6
0.131, -6.990e-6
0.130, -6.960e-6
0.129, -6.929e-6
0.128, -6.901e-6
0.127, -6.871e-6
0.126, -6.835e-6
0.125, -6.799e-6
0.124, -6.768e-6
0.123, -6.745e-6
0.122, -6.713e-6
0.121, -6.679e-6
0.120, -6.645e-6
0.119, -6.615e-6
0.118, -6.582e-6
0.117, -6.558e-6
0.116, -6.531e-6
0.115, -6.500e-6
0.114, -6.468e-6
0.113, -6.432e-6
0.112, -6.404e-6
0.111, -6.376e-6
0.110, -6.352e-6
0.109, -6.327e-6
0.108, -6.303e-6
0.107, -6.273e-6
0.106, -6.260e-6
0.105, -6.231e-6
0.104, -6.208e-6
0.103, -6.189e-6
0.102, -6.165e-6
0.101, -6.130e-6
0.100, -6.091e-6
0.099, -6.059e-6
0.098, -6.041e-6
0.097, -6.016e-6
0.096, -5.985e-6
0.095, -5.963e-6
0.094, -5.933e-6
0.093, -5.909e-6
0.092, -5.886e-6
0.091, -5.866e-6
0.090, -5.847e-6
0.089, -5.817e-6
0.088, -5.792e-6
0.087, -5.768e-6
0.086, -5.747e-6
0.085, -5.725e-6
0.084, -5.695e-6
0.083, -5.668e-6
0.082, -5.645e-6
0.081, -5.609e-6
0.080, -5.575e-6
0.079, -5.551e-6
0.078, -5.528e-6
0.077, -5.509e-6
0.076, -5.479e-6
0.075, -5.456e-6
0.074, -5.444e-6
0.073, -5.418e-6
0.072, -5.401e-6
0.071, -5.380e-6
0.070, -5.366e-6
0.069, -5.340e-6
0.068, -5.301e-6
0.067, -5.278e-6
0.066, -5.268e-6
0.065, -5.251e-6
0.064, -5.236e-6
0.063, -5.213e-6
0.062, -5.185e-6
0.061, -5.170e-6
0.060, -5.152e-6
0.059, -5.130e-6
0.058, -5.098e-6
0.057, -5.082e-6
0.056, -5.067e-6
0.055, -5.044e-6
0.054, -5.016e-6
0.053, -4.992e-6
0.052, -4.975e-6
0.051, -4.959e-6
0.050, -4.931e-6
0.049, -4.905e-6
0.048, -4.882e-6
0.047, -4.865e-6
0.046, -4.850e-6
0.045, -4.840e-6
0.044, -4.824e-6
0.043, -4.802e-6
0.042, -4.783e-6
0.041, -4.757e-6
0.040, -4.747e-6
0.039, -4.736e-6
0.038, -4.714e-6
0.037, -4.691e-6
0.036, -4.666e-6
0.035, -4.641e-6
0.034, -4.625e-6
0.033, -4.612e-6
0.032, -4.601e-6
0.031, -4.585e-6
0.030, -4.574e-6
0.029, -4.562e-6
0.028, -4.549e-6
0.027, -4.534e-6
0.026, -4.517e-6
0.025, -4.498e-6
0.024, -4.482e-6
0.023, -4.466e-6
0.022, -4.443e-6
0.021, -4.431e-6
0.020, -4.414e-6
0.019, -4.406e-6
0.018, -4.390e-6
0.017, -4.372e-6
0.016, -4.362e-6
0.015, -4.346e-6
0.014, -4.330e-6
0.013, -4.310e-6
0.012, -4.298e-6
0.011, -4.278e-6
0.010, -4.260e-6
0.009, -4.246e-6
0.008, -4.239e-6
0.007, -4.226e-6
0.006, -4.210e-6
0.005, -4.193e-6
0.004, -4.180e-6
0.003, -4.164e-6
0.002, -4.153e-6
0.001, -4.136e-6
0.000, -4.060e-6
0.001, -3.826e-6
0.002, -3.689e-6
0.003, -3.603e-6
0.004, -3.534e-6
0.005, -3.471e-6
0.006, -3.411e-6
0.007, -3.353e-6
0.008, -3.297e-6
0.009, -3.240e-6
0.010, -3.189e-6
0.011, -3.142e-6
0.012, -3.099e-6
0.013, -3.052e-6
0.014, -3.008e-6
0.015, -2.963e-6
0.016, -2.917e-6
0.017, -2.878e-6
0.018, -2.843e-6
0.019, -2.800e-6
0.020, -2.765e-6
0.021, -2.730e-6
0.022, -2.696e-6
0.023, -2.664e-6
0.024, -2.630e-6
0.025, -2.595e-6
0.026, -2.560e-6
0.027, -2.526e-6
0.028, -2.496e-6
0.029, -2.466e-6
0.030, -2.439e-6
0.031, -2.411e-6
0.032, -2.380e-6
0.033, -2.351e-6
0.034, -2.323e-6
0.035, -2.292e-6
0.036, -2.264e-6
0.037, -2.239e-6
0.038, -2.207e-6
0.039, -2.179e-6
0.040, -2.152e-6
0.041, -2.123e-6
0.042, -2.098e-6
0.043, -2.074e-6
0.044, -2.049e-6
0.045, -2.028e-6
0.046, -2.004e-6
0.047, -1.982e-6
0.048, -1.958e-6
0.049, -1.936e-6
0.050, -1.910e-6
0.051, -1.882e-6
0.052, -1.857e-6
0.053, -1.835e-6
0.054, -1.813e-6
0.055, -1.792e-6
0.056, -1.770e-6
0.057, -1.750e-6
0.058, -1.727e-6
0.059, -1.705e-6
0.060, -1.681e-6
0.061, -1.659e-6
0.062, -1.637e-6
0.063, -1.618e-6
0.064, -1.598e-6
0.065, -1.576e-6
0.066, -1.555e-6
0.067, -1.537e-6
0.068, -1.521e-6
0.069, -1.502e-6
0.070, -1.482e-6
0.071, -1.464e-6
0.072, -1.448e-6
0.073, -1.431e-6
0.074, -1.413e-6
0.075, -1.394e-6
0.076, -1.376e-6
0.077, -1.359e-6
0.078, -1.340e-6
0.079, -1.327e-6
0.080, -1.307e-6
0.081, -1.288e-6
0.082, -1.272e-6
0.083, -1.255e-6
0.084, -1.240e-6
0.085, -1.223e-6
0.086, -1.202e-6
0.087, -1.188e-6
0.088, -1.174e-6
0.089, -1.156e-6
0.090, -1.141e-6
0.091, -1.127e-6
0.092, -1.110e-6
0.093, -1.093e-6
0.094, -1.077e-6
0.095, -1.064e-6
0.096, -1.047e-6
0.097, -1.029e-6
0.098, -1.015e-6
0.099, -9.991e-7
0.100, -9.818e-7
0.101, -9.667e-7
0.102, -9.523e-7
0.103, -9.386e-7
0.104, -9.247e-7
0.105, -9.098e-7
0.106, -8.954e-7
0.107, -8.788e-7
0.108, -8.611e-7
0.109, -8.464e-7
0.110, -8.324e-7
0.111, -8.167e-7
0.112, -8.025e-7
0.113, -7.889e-7
0.114, -7.750e-7
0.115, -7.592e-7
0.116, -7.446e-7
0.117, -7.323e-7
0.118, -7.209e-7
0.119, -7.069e-7
0.120, -6.937e-7
0.121, -6.784e-7
0.122, -6.628e-7
0.123, -6.502e-7
0.124, -6.349e-7
0.125, -6.210e-7
0.126, -6.088e-7
0.127, -5.979e-7
0.128, -5.829e-7
0.129, -5.702e-7
0.130, -5.561e-7
0.131, -5.436e-7
0.132, -5.295e-7
0.133, -5.161e-7
0.134, -5.029e-7
0.135, -4.875e-7
0.136, -4.746e-7
0.137, -4.631e-7
0.138, -4.520e-7
0.139, -4.371e-7
0.140, -4.239e-7
0.141, -4.103e-7
0.142, -3.960e-7
0.143, -3.823e-7
0.144, -3.702e-7
0.145, -3.559e-7
0.146, -3.419e-7
0.147, -3.284e-7
0.148, -3.168e-7
0.149, -3.048e-7
0.150, -2.923e-7
0.151, -2.807e-7
0.152, -2.668e-7
0.153, -2.513e-7
0.154, -2.369e-7
0.155, -2.265e-7
0.156, -2.131e-7
0.157, -2.000e-7
0.158, -1.889e-7
0.159, -1.750e-7
0.160, -1.624e-7
0.161, -1.499e-7
0.162, -1.365e-7
0.163, -1.235e-7
0.164, -1.093e-7
0.165, -9.656e-8
0.166, -8.280e-8
0.167, -6.736e-8
0.168, -5.547e-8
0.169, -4.269e-8
0.170, -2.833e-8
0.171, -1.604e-8
0.172, -3.362e-9
0.173, 1.237e-8
0.174, 2.692e-8
0.175, 4.098e-8
0.176, 5.464e-8
0.177, 7.175e-8
0.178, 8.531e-8
0.179, 1.015e-7
0.180, 1.148e-7
0.181, 1.279e-7
0.182, 1.437e-7
0.183, 1.580e-7
0.184, 1.720e-7
0.185, 1.882e-7
0.186, 2.018e-7
0.187, 2.178e-7
0.188, 2.340e-7
0.189, 2.509e-7
0.190, 2.676e-7
0.191, 2.843e-7
0.192, 3.026e-7
0.193, 3.181e-7
0.194, 3.353e-7
0.195, 3.549e-7
0.196, 3.727e-7
0.197, 3.893e-7
0.198, 4.059e-7
0.199, 4.261e-7
0.200, 4.444e-7
0.201, 4.623e-7
0.202, 4.811e-7
0.203, 5.023e-7
0.204, 5.227e-7
0.205, 5.464e-7
0.206, 5.675e-7
0.207, 5.879e-7
0.208, 6.101e-7
0.209, 6.324e-7
0.210, 6.563e-7
0.211, 6.814e-7
0.212, 7.067e-7
0.213, 7.325e-7
0.214, 7.609e-7
0.215, 7.871e-7
0.216, 8.172e-7
0.217, 8.508e-7
0.218, 8.863e-7
0.219, 9.237e-7
0.220, 9.643e-7
0.221, 1.006e-6
0.222, 1.051e-6
0.223, 1.095e-6
0.224, 1.145e-6
0.225, 1.194e-6
0.226, 1.245e-6
0.227, 1.298e-6
0.228, 1.352e-6
0.229, 1.407e-6
0.230, 1.466e-6
0.231, 1.525e-6
0.232, 1.585e-6
0.233, 1.647e-6
0.234, 1.708e-6
0.235, 1.772e-6
0.236, 1.839e-6
0.237, 1.904e-6
0.238, 1.969e-6
0.239, 2.036e-6
0.240, 2.106e-6
0.241, 2.178e-6
0.242, 2.250e-6
0.243, 2.327e-6
0.244, 2.406e-6
0.245, 2.483e-6
0.246, 2.565e-6
0.247, 2.646e-6
0.248, 2.730e-6
0.249, 2.817e-6
0.250, 2.902e-6
0.251, 2.993e-6
0.252, 3.088e-6
0.253, 3.180e-6
0.254, 3.278e-6
0.255, 3.374e-6
0.256, 3.474e-6
0.257, 3.572e-6
0.258, 3.672e-6
0.259, 3.774e-6
0.260, 3.883e-6
0.261, 3.990e-6
0.262, 4.104e-6
0.263, 4.213e-6
0.264, 4.329e-6
0.265, 4.449e-6
0.266, 4.568e-6
0.267, 4.690e-6
0.268, 4.808e-6
0.269, 4.940e-6
0.270, 5.067e-6
0.271, 5.192e-6
0.272, 5.317e-6
0.273, 5.446e-6
0.274, 5.577e-6
0.275, 5.712e-6
0.276, 5.851e-6
0.277, 5.987e-6
0.278, 6.127e-6
0.279, 6.273e-6
0.280, 6.421e-6
0.281, 6.567e-6
0.282, 6.708e-6
0.283, 6.861e-6
0.284, 7.014e-6
0.285, 7.170e-6
0.286, 7.343e-6
0.287, 7.507e-6
0.288, 7.658e-6
0.289, 7.812e-6
0.290, 7.966e-6
0.291, 8.136e-6
0.292, 8.306e-6
0.293, 8.473e-6
0.294, 8.644e-6
0.295, 8.808e-6
0.296, 8.981e-6
0.297, 9.149e-6
0.298, 9.305e-6
0.299, 9.475e-6
0.300, 9.663e-6
0.301, 9.830e-6
0.302, 9.999e-6
0.303, 1.017e-5
0.304, 1.036e-5
0.305, 1.055e-5
0.306, 1.074e-5
0.307, 1.094e-5
0.308, 1.113e-5
0.309, 1.132e-5
0.310, 1.150e-5
0.311, 1.167e-5
0.312, 1.186e-5
0.313, 1.205e-5
0.314, 1.223e-5
0.315, 1.242e-5
0.316, 1.261e-5
0.317, 1.282e-5
0.318, 1.302e-5
0.319, 1.321e-5
0.320, 1.340e-5
0.321, 1.361e-5
0.322, 1.381e-5
0.323, 1.401e-5
0.324, 1.421e-5
0.325, 1.441e-5
0.326, 1.464e-5
0.327, 1.485e-5
0.328, 1.506e-5
0.329, 1.529e-5
0.330, 1.551e-5
0.331, 1.572e-5
0.332, 1.594e-5
0.333, 1.615e-5
0.334, 1.637e-5
0.335, 1.658e-5
0.336, 1.678e-5
0.337, 1.699e-5
0.338, 1.718e-5
0.339, 1.738e-5
0.340, 1.759e-5
0.341, 1.778e-5
0.342, 1.799e-5
0.343, 1.821e-5
0.344, 1.842e-5
0.345, 1.863e-5
0.346, 1.888e-5
0.347, 1.908e-5
0.348, 1.927e-5
0.349, 1.947e-5
0.350, 1.970e-5
0.351, 1.993e-5
0.352, 2.015e-5
0.353, 2.037e-5
0.354, 2.057e-5
0.355, 2.079e-5
0.356, 2.100e-5
0.357, 2.119e-5
0.358, 2.140e-5
0.359, 2.159e-5
0.360, 2.180e-5
0.361, 2.203e-5
0.362, 2.225e-5
0.363, 2.245e-5
0.364, 2.264e-5
0.365, 2.284e-5
0.366, 2.306e-5
0.367, 2.328e-5
0.368, 2.348e-5
0.369, 2.369e-5
0.370, 2.387e-5
0.371, 2.404e-5
0.372, 2.422e-5
0.373, 2.438e-5
0.374, 2.458e-5
0.375, 2.478e-5
0.376, 2.497e-5
0.377, 2.517e-5
0.378, 2.536e-5
0.379, 2.552e-5
0.380, 2.568e-5
0.381, 2.585e-5
0.382, 2.602e-5
0.383, 2.620e-5
0.384, 2.638e-5
0.385, 2.652e-5
0.386, 2.668e-5
0.387, 2.685e-5
0.388, 2.701e-5
0.389, 2.718e-5
0.390, 2.733e-5
0.391, 2.749e-5
0.392, 2.767e-5
0.393, 2.785e-5
0.394, 2.801e-5
0.395, 2.818e-5
0.396, 2.833e-5
0.397, 2.846e-5
0.398, 2.864e-5
0.399, 2.883e-5
0.400, 2.899e-5
0.401, 2.915e-5
0.402, 2.926e-5
0.403, 2.941e-5
0.404, 2.956e-5
0.405, 2.973e-5
0.406, 2.989e-5
0.407, 3.002e-5
0.408, 3.016e-5
0.409, 3.027e-5
0.410, 3.039e-5
0.411, 3.053e-5
0.412, 3.072e-5
0.413, 3.084e-5
0.414, 3.097e-5
0.415, 3.111e-5
0.416, 3.125e-5
0.417, 3.140e-5
0.418, 3.154e-5
0.419, 3.167e-5
0.420, 3.177e-5
0.421, 3.189e-5
0.422, 3.202e-5
0.423, 3.217e-5
0.424, 3.228e-5
0.425, 3.238e-5
0.426, 3.249e-5
0.427, 3.258e-5
0.428, 3.269e-5
0.429, 3.282e-5
0.430, 3.296e-5
0.431, 3.310e-5
0.432, 3.324e-5
0.433, 3.335e-5
0.434, 3.345e-5
0.435, 3.356e-5
0.436, 3.367e-5
0.437, 3.381e-5
0.438, 3.393e-5
0.439, 3.406e-5
0.440, 3.418e-5
0.441, 3.432e-5
0.442, 3.447e-5
0.443, 3.462e-5
0.444, 3.475e-5
0.445, 3.490e-5
0.446, 3.506e-5
0.447, 3.522e-5
0.448, 3.537e-5
0.449, 3.551e-5
0.450, 3.566e-5
0.451, 3.578e-5
0.452, 3.587e-5
0.453, 3.599e-5
0.454, 3.615e-5
0.455, 3.633e-5
0.456, 3.651e-5
0.457, 3.665e-5
0.458, 3.678e-5
0.459, 3.691e-5
0.460, 3.704e-5
0.461, 3.716e-5
0.462, 3.731e-5
0.463, 3.747e-5
0.464, 3.763e-5
0.465, 3.781e-5
0.466, 3.797e-5
0.467, 3.813e-5
0.468, 3.830e-5
0.469, 3.848e-5
0.470, 3.864e-5
0.471, 3.880e-5
0.472, 3.898e-5
0.473, 3.917e-5
0.474, 3.938e-5
0.475, 3.957e-5
0.476, 3.977e-5
0.477, 3.996e-5
0.478, 4.013e-5
0.479, 4.033e-5
0.480, 4.050e-5
0.481, 4.064e-5
0.482, 4.082e-5
0.483, 4.102e-5
0.484, 4.119e-5
0.485, 4.142e-5
0.486, 4.165e-5
0.487, 4.187e-5
0.488, 4.213e-5
0.489, 4.238e-5
0.490, 4.264e-5
0.491, 4.286e-5
0.492, 4.304e-5
0.493, 4.322e-5
0.494, 4.343e-5
0.495, 4.369e-5
0.496, 4.394e-5
0.497, 4.417e-5
0.498, 4.442e-5
0.499, 4.467e-5
0.500, 4.483e-5
0.501, 4.500e-5
0.502, 4.523e-5
0.503, 4.550e-5
0.504, 4.580e-5
0.505, 4.604e-5
0.506, 4.630e-5
0.507, 4.648e-5
0.508, 4.671e-5
0.509, 4.696e-5
0.510, 4.722e-5
0.511, 4.744e-5
0.512, 4.771e-5
0.513, 4.801e-5
0.514, 4.831e-5
0.515, 4.860e-5
0.516, 4.890e-5
0.517, 4.919e-5
0.518, 4.951e-5
0.519, 4.979e-5
0.520, 5.010e-5
0.521, 5.041e-5
0.522, 5.069e-5
0.523, 5.099e-5
0.524, 5.127e-5
0.525, 5.156e-5
0.526, 5.189e-5
0.527, 5.222e-5
0.528, 5.254e-5
0.529, 5.284e-5
0.530, 5.315e-5
0.531, 5.349e-5
0.532, 5.379e-5
0.533, 5.412e-5
0.534, 5.447e-5
0.535, 5.483e-5
0.536, 5.516e-5
0.537, 5.548e-5
0.538, 5.581e-5
0.539, 5.619e-5
0.540, 5.655e-5
0.541, 5.694e-5
0.542, 5.735e-5
0.543, 5.778e-5
0.544, 5.819e-5
0.545, 5.856e-5
0.546, 5.895e-5
0.547, 5.934e-5
0.548, 5.973e-5
0.549, 6.014e-5
0.550, 6.059e-5
0.551, 6.101e-5
0.552, 6.148e-5
0.553, 6.190e-5
0.554, 6.233e-5
0.555, 6.277e-5
0.556, 6.320e-5
0.557, 6.364e-5
0.558, 6.406e-5
0.559, 6.447e-5
0.560, 6.494e-5
0.561, 6.549e-5
0.562, 6.593e-5
0.563, 6.642e-5
0.564, 6.694e-5
0.565, 6.748e-5
0.566, 6.800e-5
0.567, 6.846e-5
0.568, 6.897e-5
0.569, 6.951e-5
0.570, 7.007e-5
0.571, 7.062e-5
0.572, 7.112e-5
0.573, 7.163e-5
0.574, 7.220e-5
0.575, 7.273e-5
0.576, 7.328e-5
0.577, 7.382e-5
0.578, 7.431e-5
0.579, 7.488e-5
0.580, 7.545e-5
0.581, 7.603e-5
0.582, 7.666e-5
0.583, 7.726e-5
0.584, 7.786e-5
0.585, 7.845e-5
0.586, 7.901e-5
0.587, 7.957e-5
0.588, 8.018e-5
0.589, 8.078e-5
0.590, 8.140e-5
0.591, 8.199e-5
0.592, 8.258e-5
0.593, 8.320e-5
0.594, 8.379e-5
0.595, 8.442e-5
0.596, 8.505e-5
0.597, 8.573e-5
0.598, 8.644e-5
0.599, 8.717e-5
0.600, 8.787e-5
0.601, 8.852e-5
0.602, 8.919e-5
0.603, 8.989e-5
0.604, 9.063e-5
0.605, 9.135e-5
0.606, 9.204e-5
0.607, 9.273e-5
0.608, 9.339e-5
0.609, 9.408e-5
0.610, 9.477e-5
0.611, 9.545e-5
0.612, 9.622e-5
0.613, 9.697e-5
0.614, 9.768e-5
0.615, 9.841e-5
0.616, 9.914e-5
0.617, 9.992e-5
0.618, 1.007e-4
0.619, 1.015e-4
0.620, 1.023e-4
0.621, 1.031e-4
0.622, 1.039e-4
0.623, 1.046e-4
0.624, 1.054e-4
0.625, 1.062e-4
0.626, 1.069e-4
0.627, 1.077e-4
0.628, 1.086e-4
0.629, 1.094e-4
0.630, 1.102e-4
0.631, 1.111e-4
0.632, 1.119e-4
0.633, 1.128e-4
0.634, 1.136e-4
0.635, 1.144e-4
0.636, 1.151e-4
0.637, 1.160e-4
0.638, 1.169e-4
0.639, 1.178e-4
0.640, 1.186e-4
0.641, 1.195e-4
0.642, 1.204e-4
0.643, 1.213e-4
0.644, 1.221e-4
0.645, 1.229e-4
0.646, 1.239e-4
0.647, 1.248e-4
0.648, 1.257e-4
0.649, 1.266e-4
0.650, 1.275e-4
0.651, 1.284e-4
0.652, 1.292e-4
0.653, 1.301e-4
0.654, 1.309e-4
0.655, 1.318e-4
0.656, 1.328e-4
0.657, 1.337e-4
0.658, 1.346e-4
0.659, 1.355e-4
0.660, 1.365e-4
0.661, 1.374e-4
0.662, 1.383e-4
0.663, 1.392e-4
0.664, 1.401e-4
0.665, 1.411e-4
0.666, 1.420e-4
0.667, 1.430e-4
0.668, 1.440e-4
0.669, 1.450e-4
0.670, 1.459e-4
0.671, 1.468e-4
0.672, 1.478e-4
0.673, 1.487e-4
0.674, 1.497e-4
0.675, 1.506e-4
0.676, 1.515e-4
0.677, 1.525e-4
0.678, 1.535e-4
0.679, 1.544e-4
0.680, 1.553e-4
0.681, 1.562e-4
0.682, 1.571e-4
0.683, 1.580e-4
0.684, 1.590e-4
0.685, 1.600e-4
0.686, 1.610e-4
0.687, 1.620e-4
0.688, 1.630e-4
0.689, 1.640e-4
0.690, 1.649e-4
0.691, 1.659e-4
0.692, 1.668e-4
0.693, 1.678e-4
0.694, 1.688e-4
0.695, 1.698e-4
0.696, 1.708e-4
0.697, 1.718e-4
0.698, 1.728e-4
0.699, 1.738e-4
0.700, 1.747e-4
0.701, 1.757e-4
0.702, 1.768e-4
0.703, 1.778e-4
0.704, 1.787e-4
0.705, 1.796e-4
0.706, 1.807e-4
0.707, 1.818e-4
0.708, 1.828e-4
0.709, 1.838e-4
0.710, 1.847e-4
0.711, 1.857e-4
0.712, 1.868e-4
0.713, 1.877e-4
0.714, 1.887e-4
0.715, 1.897e-4
0.716, 1.908e-4
0.717, 1.919e-4
0.718, 1.930e-4
0.719, 1.939e-4
0.720, 1.949e-4
0.721, 1.959e-4
0.722, 1.969e-4
0.723, 1.979e-4
0.724, 1.990e-4
0.725, 2.000e-4
0.726, 2.011e-4
0.727, 2.021e-4
0.728, 2.031e-4
0.729, 2.041e-4
0.730, 2.052e-4
0.731, 2.062e-4
0.732, 2.073e-4
0.733, 2.084e-4
0.734, 2.094e-4
0.735, 2.105e-4
0.736, 2.116e-4
0.737, 2.126e-4
0.738, 2.137e-4
0.739, 2.148e-4
0.740, 2.158e-4
0.741, 2.168e-4
0.742, 2.178e-4
0.743, 2.189e-4
0.744, 2.200e-4
0.745, 2.212e-4
0.746, 2.224e-4
0.747, 2.235e-4
0.748, 2.247e-4
0.749, 2.258e-4
0.750, 2.269e-4
0.751, 2.280e-4
0.752, 2.291e-4
0.753, 2.304e-4
0.754, 2.316e-4
0.755, 2.327e-4
0.756, 2.338e-4
0.757, 2.349e-4
0.758, 2.361e-4
0.759, 2.373e-4
0.760, 2.385e-4
0.761, 2.397e-4
0.762, 2.408e-4
0.763, 2.420e-4
0.764, 2.432e-4
0.765, 2.445e-4
0.766, 2.457e-4
0.767, 2.469e-4
0.768, 2.482e-4
0.769, 2.494e-4
0.770, 2.506e-4
0.771, 2.517e-4
0.772, 2.529e-4
0.773, 2.542e-4
0.774, 2.555e-4
0.775, 2.567e-4
0.776, 2.579e-4
0.777, 2.592e-4
0.778, 2.605e-4
0.779, 2.618e-4
0.780, 2.631e-4
0.781, 2.644e-4
0.782, 2.657e-4
0.783, 2.671e-4
0.784, 2.684e-4
0.785, 2.697e-4
0.786, 2.710e-4
0.787, 2.723e-4
0.788, 2.736e-4
0.789, 2.749e-4
0.790, 2.763e-4
0.791, 2.777e-4
0.792, 2.791e-4
0.793, 2.805e-4
0.794, 2.818e-4
0.795, 2.832e-4
0.796, 2.845e-4
0.797, 2.859e-4
0.798, 2.873e-4
0.799, 2.887e-4
0.800, 2.898e-4
0.799, 2.879e-4
0.798, 2.846e-4
0.797, 2.812e-4
0.796, 2.778e-4
0.795, 2.745e-4
0.794, 2.714e-4
0.793, 2.685e-4
0.792, 2.656e-4
0.791, 2.627e-4
0.790, 2.598e-4
0.789, 2.569e-4
0.788, 2.541e-4
0.787, 2.513e-4
0.786, 2.486e-4
0.785, 2.459e-4
0.784, 2.433e-4
0.783, 2.407e-4
0.782, 2.383e-4
0.781, 2.358e-4
0.780, 2.332e-4
0.779, 2.306e-4
0.778, 2.281e-4
0.777, 2.256e-4
0.776, 2.232e-4
0.775, 2.209e-4
0.774, 2.186e-4
0.773, 2.163e-4
0.772, 2.140e-4
0.771, 2.117e-4
0.770, 2.094e-4
0.769, 2.071e-4
0.768, 2.049e-4
0.767, 2.026e-4
0.766, 2.005e-4
0.765, 1.985e-4
0.764, 1.965e-4
0.763, 1.944e-4
0.762, 1.924e-4
0.761, 1.903e-4
0.760, 1.883e-4
0.759, 1.864e-4
0.758, 1.844e-4
0.757, 1.824e-4
0.756, 1.805e-4
0.755, 1.786e-4
0.754, 1.767e-4
0.753, 1.748e-4
0.752, 1.730e-4
0.751, 1.711e-4
0.750, 1.693e-4
0.749, 1.675e-4
0.748, 1.658e-4
0.747, 1.640e-4
0.746, 1.624e-4
0.745, 1.608e-4
0.744, 1.591e-4
0.743, 1.574e-4
0.742, 1.558e-4
0.741, 1.541e-4
0.740, 1.525e-4
0.739, 1.510e-4
0.738, 1.494e-4
0.737, 1.479e-4
0.736, 1.464e-4
0.735, 1.450e-4
0.734, 1.435e-4
0.733, 1.420e-4
0.732, 1.405e-4
0.731, 1.391e-4
0.730, 1.377e-4
0.729, 1.363e-4
0.728, 1.348e-4
0.727, 1.335e-4
0.726, 1.321e-4
0.725, 1.308e-4
0.724, 1.294e-4
0.723, 1.281e-4
0.722, 1.269e-4
0.721, 1.256e-4
0.720, 1.244e-4
0.719, 1.231e-4
0.718, 1.218e-4
0.717, 1.205e-4
0.716, 1.192e-4
0.715, 1.180e-4
0.714, 1.167e-4
0.713, 1.156e-4
0.712, 1.145e-4
0.711, 1.134e-4
0.710, 1.122e-4
0.709, 1.111e-4
0.708, 1.100e-4
0.707, 1.089e-4
0.706, 1.078e-4
0.705, 1.066e-4
0.704, 1.055e-4
0.703, 1.044e-4
0.702, 1.034e-4
0.701, 1.024e-4
0.700, 1.014e-4
0.699, 1.003e-4
0.698, 9.922e-5
0.697, 9.820e-5
0.696, 9.725e-5
0.695, 9.635e-5
0.694, 9.540e-5
0.693, 9.440e-5
0.692, 9.344e-5
0.691, 9.249e-5
0.690, 9.160e-5
0.689, 9.075e-5
0.688, 8.989e-5
0.687, 8.895e-5
0.686, 8.801e-5
0.685, 8.710e-5
0.684, 8.626e-5
0.683, 8.541e-5
0.682, 8.455e-5
0.681, 8.370e-5
0.680, 8.280e-5
0.679, 8.197e-5
0.678, 8.116e-5
0.677, 8.035e-5
0.676, 7.949e-5
0.675, 7.865e-5
0.674, 7.785e-5
0.673, 7.707e-5
0.672, 7.624e-5
0.671, 7.545e-5
0.670, 7.469e-5
0.669, 7.396e-5
0.668, 7.319e-5
0.667, 7.245e-5
0.666, 7.173e-5
0.665, 7.098e-5
0.664, 7.026e-5
0.663, 6.954e-5
0.662, 6.886e-5
0.661, 6.817e-5
0.660, 6.747e-5
0.659, 6.681e-5
0.658, 6.616e-5
0.657, 6.551e-5
0.656, 6.487e-5
0.655, 6.423e-5
0.654, 6.358e-5
0.653, 6.289e-5
0.652, 6.220e-5
0.651, 6.155e-5
0.650, 6.093e-5
0.649, 6.028e-5
0.648, 5.961e-5
0.647, 5.899e-5
0.646, 5.838e-5
0.645, 5.777e-5
0.644, 5.719e-5
0.643, 5.657e-5
0.642, 5.594e-5
0.641, 5.538e-5
0.640, 5.479e-5
0.639, 5.420e-5
0.638, 5.366e-5
0.637, 5.311e-5
0.636, 5.258e-5
0.635, 5.200e-5
0.634, 5.146e-5
0.633, 5.093e-5
0.632, 5.039e-5
0.631, 4.983e-5
0.630, 4.930e-5
0.629, 4.882e-5
0.628, 4.833e-5
0.627, 4.783e-5
0.626, 4.732e-5
0.625, 4.682e-5
0.624, 4.630e-5
0.623, 4.577e-5
0.622, 4.528e-5
0.621, 4.476e-5
0.620, 4.428e-5
0.619, 4.378e-5
0.618, 4.328e-5
0.617, 4.281e-5
0.616, 4.235e-5
0.615, 4.188e-5
0.614, 4.139e-5
0.613, 4.094e-5
0.612, 4.051e-5
0.611, 4.003e-5
0.610, 3.959e-5
0.609, 3.918e-5
0.608, 3.874e-5
0.607, 3.828e-5
0.606, 3.785e-5
0.605, 3.741e-5
0.604, 3.700e-5
0.603, 3.659e-5
0.602, 3.617e-5
0.601, 3.577e-5
0.600, 3.535e-5
0.599, 3.491e-5
0.598, 3.448e-5
0.597, 3.408e-5
0.596, 3.369e-5
0.595, 3.331e-5
0.594, 3.291e-5
0.593, 3.252e-5
0.592, 3.215e-5
0.591, 3.177e-5
0.590, 3.140e-5
0.589, 3.105e-5
0.588, 3.070e-5
0.587, 3.034e-5
0.586, 2.997e-5
0.585, 2.960e-5
0.584, 2.921e-5
0.583, 2.886e-5
0.582, 2.850e-5
0.581, 2.816e-5
0.580, 2.782e-5
0.579, 2.748e-5
0.578, 2.713e-5
0.577, 2.680e-5
0.576, 2.645e-5
0.575, 2.612e-5
0.574, 2.578e-5
0.573, 2.545e-5
0.572, 2.515e-5
0.571, 2.486e-5
0.570, 2.456e-5
0.569, 2.426e-5
0.568, 2.396e-5
0.567, 2.368e-5
0.566, 2.338e-5
0.565, 2.310e-5
0.564, 2.283e-5
0.563, 2.252e-5
0.562, 2.224e-5
0.561, 2.196e-5
0.560, 2.170e-5
0.559, 2.145e-5
0.558, 2.117e-5
0.557, 2.089e-5
0.556, 2.061e-5
0.555, 2.033e-5
0.554, 2.007e-5
0.553, 1.981e-5
0.552, 1.955e-5
0.551, 1.929e-5
0.550, 1.904e-5
0.549, 1.879e-5
0.548, 1.856e-5
0.547, 1.832e-5
0.546, 1.809e-5
0.545, 1.785e-5
0.544, 1.760e-5
0.543, 1.736e-5
0.542, 1.713e-5
0.541, 1.691e-5
0.540, 1.668e-5
0.539, 1.644e-5
0.538, 1.623e-5
0.537, 1.602e-5
0.536, 1.579e-5
0.535, 1.555e-5
0.534, 1.533e-5
0.533, 1.511e-5
0.532, 1.489e-5
0.531, 1.468e-5
0.530, 1.448e-5
0.529, 1.429e-5
0.528, 1.407e-5
0.527, 1.386e-5
0.526, 1.367e-5
0.525, 1.347e-5
0.524, 1.328e-5
0.523, 1.306e-5
0.522, 1.287e-5
0.521, 1.268e-5
0.520, 1.250e-5
0.519, 1.232e-5
0.518, 1.214e-5
0.517, 1.195e-5
0.516, 1.178e-5
0.515, 1.158e-5
0.514, 1.139e-5
0.513, 1.123e-5
0.512, 1.105e-5
0.511, 1.087e-5
0.510, 1.069e-5
0.509, 1.051e-5
0.508, 1.034e-5
0.507, 1.017e-5
0.506, 1.000e-5
0.505, 9.833e-6
0.504, 9.667e-6
0.503, 9.502e-6
0.502, 9.349e-6
0.501, 9.209e-6
0.500, 9.067e-6
0.499, 8.906e-6
0.498, 8.744e-6
0.497, 8.595e-6
0.496, 8.449e-6
0.495, 8.302e-6
0.494, 8.155e-6
0.493, 8.005e-6
0.492, 7.849e-6
0.491, 7.694e-6
0.490, 7.543e-6
0.489, 7.409e-6
0.488, 7.255e-6
0.487, 7.110e-6
0.486, 6.977e-6
0.485, 6.842e-6
0.484, 6.702e-6
0.483, 6.570e-6
0.482, 6.446e-6
0.481, 6.316e-6
0.480, 6.184e-6
0.479, 6.048e-6
0.478, 5.929e-6
0.477, 5.795e-6
0.476, 5.671e-6
0.475, 5.547e-6
0.474, 5.417e-6
0.473, 5.301e-6
0.472, 5.185e-6
0.471, 5.067e-6
0.470, 4.947e-6
0.469, 4.820e-6
0.468, 4.696e-6
0.467, 4.577e-6
0.466, 4.463e-6
0.465, 4.352e-6
0.464, 4.235e-6
0.463, 4.130e-6
0.462, 4.020e-6
0.461, 3.901e-6
0.460, 3.782e-6
0.459, 3.675e-6
0.458, 3.568e-6
0.457, 3.468e-6
0.456, 3.358e-6
0.455, 3.251e-6
0.454, 3.152e-6
0.453, 3.048e-6
0.452, 2.946e-6
0.451, 2.844e-6
0.450, 2.738e-6
0.449, 2.639e-6
0.448, 2.541e-6
0.447, 2.440e-6
0.446, 2.342e-6
0.445, 2.248e-6
0.444, 2.154e-6
0.443, 2.057e-6
0.442, 1.967e-6
0.441, 1.878e-6
0.440, 1.779e-6
0.439, 1.680e-6
0.438, 1.594e-6
0.437, 1.499e-6
0.436, 1.406e-6
0.435, 1.309e-6
0.434, 1.214e-6
0.433, 1.130e-6
0.432, 1.042e-6
0.431, 9.554e-7
0.430, 8.726e-7
0.429, 7.817e-7
0.428, 6.965e-7
0.427, 6.060e-7
0.426, 5.154e-7
0.425, 4.331e-7
0.424, 3.484e-7
0.423, 2.651e-7
0.422, 1.871e-7
0.421, 1.039e-7
0.420, 2.220e-8
0.419, -5.940e-8
0.418, -1.445e-7
0.417, -2.193e-7
0.416, -3.012e-7
0.415, -3.824e-7
0.414, -4.563e-7
0.413, -5.296e-7
0.412, -6.110e-7
0.411, -6.871e-7
0.410, -7.598e-7
0.409, -8.334e-7
0.408, -9.142e-7
0.407, -9.898e-7
0.406, -1.064e-6
0.405, -1.139e-6
0.404, -1.207e-6
0.403, -1.281e-6
0.402, -1.355e-6
0.401, -1.425e-6
0.400, -1.494e-6
0.399, -1.564e-6
0.398, -1.632e-6
0.397, -1.704e-6
0.396, -1.775e-6
0.395, -1.848e-6
0.394, -1.915e-6
0.393, -1.979e-6
0.392, -2.045e-6
0.391, -2.109e-6
0.390, -2.176e-6
0.389, -2.240e-6
0.388, -2.302e-6
0.387, -2.365e-6
0.386, -2.433e-6
0.385, -2.499e-6
0.384, -2.559e-6
0.383, -2.619e-6
0.382, -2.679e-6
0.381, -2.748e-6
0.380, -2.810e-6
0.379, -2.870e-6
0.378, -2.932e-6
0.377, -2.989e-6
0.376, -3.047e-6
0.375, -3.109e-6
0.374, -3.175e-6
0.373, -3.239e-6
0.372, -3.303e-6
0.371, -3.367e-6
0.370, -3.430e-6
0.369, -3.489e-6
0.368, -3.538e-6
0.367, -3.592e-6
0.366, -3.647e-6
0.365, -3.702e-6
0.364, -3.752e-6
0.363, -3.807e-6
0.362, -3.872e-6
0.361, -3.927e-6
0.360, -3.989e-6
0.359, -4.047e-6
0.358, -4.107e-6
0.357, -4.155e-6
0.356, -4.211e-6
0.355, -4.262e-6
0.354, -4.317e-6
0.353, -4.371e-6
0.352, -4.428e-6
0.351, -4.493e-6
0.350, -4.545e-6
0.349, -4.590e-6
0.348, -4.629e-6
0.347, -4.681e-6
0.346, -4.734e-6
0.345, -4.782e-6
0.344, -4.829e-6
0.343, -4.886e-6
0.342, -4.945e-6
0.341, -4.997e-6
0.340, -5.047e-6
0.339, -5.100e-6
0.338, -5.148e-6
0.337, -5.195e-6
0.336, -5.246e-6
0.335, -5.293e-6
0.334, -5.336e-6
0.333, -5.399e-6
0.332, -5.449e-6
0.331, -5.491e-6
0.330, -5.534e-6
0.329, -5.581e-6
0.328, -5.630e-6
0.327, -5.678e-6
0.326, -5.721e-6
0.325, -5.764e-6
0.324, -5.811e-6
0.323, -5.858e-6
0.322, -5.901e-6
0.321, -5.949e-6
0.320, -5.996e-6
0.319, -6.042e-6
0.318, -6.086e-6
0.317, -6.124e-6
0.316, -6.166e-6
0.315, -6.220e-6
0.314, -6.273e-6
0.313, -6.315e-6
0.312, -6.355e-6
0.311, -6.409e-6
0.310, -6.450e-6
0.309, -6.485e-6
0.308, -6.526e-6
0.307, -6.582e-6
0.306, -6.629e-6
0.305, -6.669e-6
0.304, -6.715e-6
0.303, -6.769e-6
0.302, -6.810e-6
0.301, -6.855e-6
0.300, -6.894e-6
0.299, -6.933e-6
0.298, -6.980e-6
0.297, -7.016e-6
0.296, -7.044e-6
0.295, -7.076e-6
0.294, -7.110e-6
0.293, -7.149e-6
0.292, -7.195e-6
0.291, -7.226e-6
0.290, -7.261e-6
0.289, -7.305e-6
0.288, -7.346e-6
0.287, -7.385e-6
0.286, -7.417e-6
0.285, -7.447e-6
0.284, -7.485e-6
0.283, -7.528e-6
0.282, -7.569e-6
0.281, -7.594e-6
0.280, -7.617e-6
0.279, -7.648e-6
0.278, -7.683e-6
0.277, -7.715e-6
0.276, -7.741e-6
0.275, -7.768e-6
0.274, -7.807e-6
0.273, -7.838e-6
0.272, -7.873e-6
0.271, -7.901e-6
0.270, -7.940e-6
0.269, -7.970e-6
0.268, -7.993e-6
0.267, -8.019e-6
0.266, -8.038e-6
0.265, -8.073e-6
0.264, -8.102e-6
0.263, -8.125e-6
0.262, -8.150e-6
0.261, -8.173e-6
0.260, -8.205e-6
0.259, -8.237e-6
0.258, -8.262e-6
0.257, -8.275e-6
0.256, -8.289e-6
0.255, -8.311e-6
0.254, -8.325e-6
0.253, -8.348e-6
0.252, -8.363e-6
0.251, -8.385e-6
0.250, -8.403e-6
0.249, -8.439e-6
0.248, -8.469e-6
0.247, -8.492e-6
0.246, -8.514e-6
0.245, -8.528e-6
0.244, -8.545e-6
0.243, -8.564e-6
0.242, -8.593e-6
0.241, -8.619e-6
0.240, -8.621e-6
0.239, -8.626e-6
0.238, -8.639e-6
0.237, -8.647e-6
0.236, -8.665e-6
0.235, -8.684e-6
0.234, -8.697e-6
0.233, -8.703e-6
0.232, -8.699e-6
0.231, -8.701e-6
0.230, -8.707e-6
0.229, -8.710e-6
0.228, -8.728e-6
0.227, -8.746e-6
0.226, -8.770e-6
0.225, -8.761e-6
0.224, -8.758e-6
0.223, -8.758e-6
0.222, -8.757e-6
0.221, -8.747e-6
0.220, -8.756e-6
0.219, -8.769e-6
0.218, -8.775e-6
0.217, -8.761e-6
0.216, -8.734e-6
0.215, -8.707e-6
0.214, -8.690e-6
0.213, -8.685e-6
0.212, -8.678e-6
0.211, -8.660e-6
0.210, -8.637e-6
0.209, -8.627e-6
0.208, -8.615e-6
0.207, -8.589e-6
0.206, -8.571e-6
0.205, -8.563e-6
0.204, -8.542e-6
0.203, -8.526e-6
0.202, -8.522e-6
0.201, -8.500e-6
0.200, -8.479e-6
0.199, -8.464e-6
0.198, -8.438e-6
0.197, -8.415e-6
0.196, -8.389e-6
0.195, -8.361e-6
0.194, -8.328e-6
0.193, -8.304e-6
0.192, -8.297e-6
0.191, -8.274e-6
0.190, -8.246e-6
0.189, -8.225e-6
0.188, -8.207e-6
0.187, -8.196e-6
0.186, -8.199e-6
0.185, -8.187e-6
0.184, -8.148e-6
0.183, -8.129e-6
0.182, -8.123e-6
0.181, -8.093e-6
0.180, -8.063e-6
0.179, -8.038e-6
0.178, -8.005e-6
0.177, -7.989e-6
0.176, -7.975e-6
0.175, -7.965e-6
0.174, -7.953e-6
0.173, -7.950e-6
0.172, -7.921e-6
0.171, -7.883e-6
0.170, -7.862e-6
0.169, -7.830e-6
0.168, -7.806e-6
0.167, -7.782e-6
0.166, -7.777e-6
0.165, -7.763e-6
0.164, -7.739e-6
0.163, -7.707e-6
0.162, -7.688e-6
0.161, -7.673e-6
0.160, -7.642e-6
0.159, -7.633e-6
0.158, -7.627e-6
0.157, -7.615e-6
0.156, -7.621e-6
0.155, -7.608e-6
0.154, -7.577e-6
0.153, -7.560e-6
0.152, -7.536e-6
0.151, -7.516e-6
0.150, -7.505e-6
0.149, -7.487e-6
0.148, -7.461e-6
0.147, -7.449e-6
0.146, -7.442e-6
0.145, -7.422e-6
0.144, -7.393e-6
0.143, -7.376e-6
0.142, -7.369e-6
0.141, -7.351e-6
0.140, -7.332e-6
0.139, -7.310e-6
0.138, -7.296e-6
0.137, -7.274e-6
0.136, -7.248e-6
0.135, -7.229e-6
0.134, -7.202e-6
0.133, -7.175e-6
0.132, -7.168e-6
0.131, -7.150e-6
0.130, -7.113e-6
0.129, -7.091e-6
0.128, -7.076e-6
0.127, -7.069e-6
0.126, -7.071e-6
0.125, -7.046e-6
0.124, -7.021e-6
0.123, -6.990e-6
0.122, -6.964e-6
0.121, -6.948e-6
0.120, -6.933e-6
0.119, -6.921e-6
0.118, -6.911e-6
0.117, -6.902e-6
0.116, -6.886e-6
0.115, -6.855e-6
0.114, -6.838e-6
0.113, -6.814e-6
0.112, -6.797e-6
0.111, -6.776e-6
0.110, -6.747e-6
0.109, -6.722e-6
0.108, -6.694e-6
0.107, -6.664e-6
0.106, -6.640e-6
0.105, -6.613e-6
0.104, -6.600e-6
0.103, -6.597e-6
0.102, -6.585e-6
0.101, -6.568e-6
0.100, -6.546e-6
0.099, -6.519e-6
0.098, -6.502e-6
0.097, -6.476e-6
0.096, -6.465e-6
0.095, -6.456e-6
0.094, -6.447e-6
0.093, -6.433e-6
0.092, -6.404e-6
0.091, -6.390e-6
0.090, -6.386e-6
0.089, -6.366e-6
0.088, -6.352e-6
0.087, -6.333e-6
0.086, -6.313e-6
0.085, -6.284e-6
0.084, -6.261e-6
0.083, -6.245e-6
0.082, -6.239e-6
0.081, -6.226e-6
0.080, -6.208e-6
0.079, -6.185e-6
0.078, -6.165e-6
0.077, -6.144e-6
0.076, -6.121e-6
0.075, -6.103e-6
0.074, -6.092e-6
0.073, -6.080e-6
0.072, -6.063e-6
0.071, -6.055e-6
0.070, -6.050e-6
0.069, -6.030e-6
0.068, -6.017e-6
0.067, -5.997e-6
0.066, -5.970e-6
0.065, -5.958e-6
0.064, -5.943e-6
0.063, -5.934e-6
0.062, -5.919e-6
0.061, -5.895e-6
0.060, -5.873e-6
0.059, -5.867e-6
0.058, -5.862e-6
0.057, -5.850e-6
0.056, -5.838e-6
0.055, -5.821e-6
0.054, -5.800e-6
0.053, -5.788e-6
0.052, -5.771e-6
0.051, -5.755e-6
0.050, -5.740e-6
0.049, -5.716e-6
0.048, -5.700e-6
0.047, -5.696e-6
0.046, -5.682e-6
0.045, -5.668e-6
0.044, -5.646e-6
0.043, -5.616e-6
0.042, -5.605e-6
0.041, -5.598e-6
0.040, -5.584e-6
0.039, -5.581e-6
0.038, -5.561e-6
0.037, -5.539e-6
0.036, -5.524e-6
0.035, -5.503e-6
0.034, -5.497e-6
0.033, -5.498e-6
0.032, -5.496e-6
0.031, -5.475e-6
0.030, -5.453e-6
0.029, -5.441e-6
0.028, -5.417e-6
0.027, -5.397e-6
0.026, -5.398e-6
0.025, -5.390e-6
0.024, -5.376e-6
0.023, -5.352e-6
0.022, -5.341e-6
0.021, -5.330e-6
0.020, -5.328e-6
0.019, -5.316e-6
0.018, -5.292e-6
0.017, -5.275e-6
0.016, -5.260e-6
0.015, -5.245e-6
0.014, -5.232e-6
0.013, -5.216e-6
0.012, -5.209e-6
0.011, -5.206e-6
0.010, -5.188e-6
0.009, -5.180e-6
0.008, -5.167e-6
0.007, -5.156e-6
0.006, -5.156e-6
0.005, -5.149e-6
0.004, -5.134e-6
0.003, -5.121e-6
0.002, -5.112e-6
0.001, -5.098e-6
0.000, -5.026e-6
0.001, -4.786e-6
0.002, -4.634e-6
0.003, -4.535e-6
0.004, -4.451e-6
0.005, -4.375e-6
0.006, -4.305e-6
0.007, -4.240e-6
0.008, -4.185e-6
0.009, -4.122e-6
0.010, -4.066e-6
0.011, -4.009e-6
0.012, -3.952e-6
0.013, -3.901e-6
0.014, -3.853e-6
0.015, -3.807e-6
0.016, -3.751e-6
0.017, -3.711e-6
0.018, -3.666e-6
0.019, -3.617e-6
0.020, -3.580e-6
0.021, -3.542e-6
0.022, -3.500e-6
0.023, -3.453e-6
0.024, -3.414e-6
0.025, -3.380e-6
0.026, -3.346e-6
0.027, -3.306e-6
0.028, -3.271e-6
0.029, -3.233e-6
0.030, -3.193e-6
0.031, -3.154e-6
0.032, -3.121e-6
0.033, -3.091e-6
0.034, -3.055e-6
0.035, -3.022e-6
0.036, -2.994e-6
0.037, -2.960e-6
0.038, -2.925e-6
0.039, -2.889e-6
0.040, -2.856e-6
0.041, -2.815e-6
0.042, -2.786e-6
0.043, -2.750e-6
0.044, -2.720e-6
0.045, -2.694e-6
0.046, -2.663e-6
0.047, -2.636e-6
0.048, -2.608e-6
0.049, -2.576e-6
0.050, -2.549e-6
0.051, -2.523e-6
0.052, -2.495e-6
0.053, -2.459e-6
0.054, -2.430e-6
0.055, -2.409e-6
0.056, -2.387e-6
0.057, -2.358e-6
0.058, -2.335e-6
0.059, -2.314e-6
0.060, -2.292e-6
0.061, -2.268e-6
0.062, -2.240e-6
0.063, -2.220e-6
0.064, -2.195e-6
0.065, -2.175e-6
0.066, -2.155e-6
0.067, -2.125e-6
0.068, -2.103e-6
0.069, -2.078e-6
0.070, -2.053e-6
0.071, -2.031e-6
0.072, -2.004e-6
0.073, -1.981e-6
0.074, -1.962e-6
0.075, -1.941e-6
0.076, -1.919e-6
0.077, -1.903e-6
0.078, -1.875e-6
0.079, -1.853e-6
0.080, -1.832e-6
0.081, -1.811e-6
0.082, -1.792e-6
0.083, -1.769e-6
0.084, -1.748e-6
0.085, -1.724e-6
0.086, -1.706e-6
0.087, -1.690e-6
0.088, -1.671e-6
0.089, -1.649e-6
0.090, -1.628e-6
0.091, -1.610e-6
0.092, -1.589e-6
0.093, -1.568e-6
0.094, -1.546e-6
0.095, -1.530e-6
0.096, -1.513e-6
0.097, -1.493e-6
0.098, -1.478e-6
0.099, -1.462e-6
0.100, -1.445e-6
0.101, -1.430e-6
0.102, -1.413e-6
0.103, -1.392e-6
0.104, -1.368e-6
0.105, -1.348e-6
0.106, -1.330e-6
0.107, -1.313e-6
0.108, -1.299e-6
0.109, -1.284e-6
0.110, -1.262e-6
0.111, -1.246e-6
0.112, -1.230e-6
0.113, -1.213e-6
0.114, -1.197e-6
0.115, -1.177e-6
0.116, -1.160e-6
0.117, -1.147e-6
0.118, -1.132e-6
0.119, -1.109e-6
0.120, -1.095e-6
0.121, -1.080e-6
0.122, -1.063e-6
0.123, -1.048e-6
0.124, -1.033e-6
0.125, -1.018e-6
0.126, -1.002e-6
0.127, -9.865e-7
0.128, -9.678e-7
0.129, -9.488e-7
0.130, -9.337e-7
0.131, -9.176e-7
0.132, -9.015e-7
0.133, -8.851e-7
0.134, -8.704e-7
0.135, -8.513e-7
0.136, -8.350e-7
0.137, -8.203e-7
0.138, -8.040e-7
0.139, -7.870e-7
0.140, -7.734e-7
0.141, -7.589e-7
0.142, -7.453e-7
0.143, -7.269e-7
0.144, -7.110e-7
0.145, -6.969e-7
0.146, -6.826e-7
0.147, -6.682e-7
0.148, -6.499e-7
0.149, -6.368e-7
0.150, -6.178e-7
0.151, -6.005e-7
0.152, -5.845e-7
0.153, -5.691e-7
0.154, -5.539e-7
0.155, -5.417e-7
0.156, -5.281e-7
0.157, -5.128e-7
0.158, -4.943e-7
0.159, -4.821e-7
0.160, -4.667e-7
0.161, -4.532e-7
0.162, -4.405e-7
0.163, -4.252e-7
0.164, -4.116e-7
0.165, -3.956e-7
0.166, -3.777e-7
0.167, -3.617e-7
0.168, -3.441e-7
0.169, -3.283e-7
0.170, -3.153e-7
0.171, -3.006e-7
0.172, -2.895e-7
0.173, -2.728e-7
0.174, -2.565e-7
0.175, -2.394e-7
0.176, -2.211e-7
0.177, -2.053e-7
0.178, -1.918e-7
0.179, -1.743e-7
0.180, -1.567e-7
0.181, -1.404e-7
0.182, -1.240e-7
0.183, -1.080e-7
0.184, -9.253e-8
0.185, -7.582e-8
0.186, -5.851e-8
0.187, -4.259e-8
0.188, -2.312e-8
0.189, -7.000e-9
0.190, 1.148e-8
0.191, 2.977e-8
0.192, 5.032e-8
0.193, 7.076e-8
0.194, 8.856e-8
0.195, 1.080e-7
0.196, 1.268e-7
0.197, 1.444e-7
0.198, 1.635e-7
0.199, 1.838e-7
0.200, 2.034e-7
0.201, 2.223e-7
0.202, 2.432e-7
0.203, 2.620e-7
0.204, 2.827e-7
0.205, 3.058e-7
0.206, 3.290e-7
0.207, 3.518e-7
0.208, 3.761e-7
0.209, 3.990e-7
0.210, 4.228e-7
0.211, 4.467e-7
0.212, 4.713e-7
0.213, 4.940e-7
0.214, 5.200e-7
0.215, 5.476e-7
0.216, 5.772e-7
0.217, 6.071e-7
0.218, 6.381e-7
0.219, 6.697e-7
0.220, 7.024e-7
0.221, 7.333e-7
0.222, 7.686e-7
0.223, 8.048e-7
0.224, 8.436e-7
0.225, 8.825e-7
0.226, 9.224e-7
0.227, 9.644e-7
0.228, 1.007e-6
0.229, 1.048e-6
0.230, 1.094e-6
0.231, 1.140e-6
0.232, 1.183e-6
0.233, 1.228e-6
0.234, 1.275e-6
0.235, 1.323e-6
0.236, 1.369e-6
0.237, 1.416e-6
0.238, 1.464e-6
0.239, 1.515e-6
0.240, 1.566e-6
0.241, 1.620e-6
0.242, 1.672e-6
0.243, 1.728e-6
0.244, 1.784e-6
0.245, 1.839e-6
0.246, 1.895e-6
0.247, 1.952e-6
0.248, 2.009e-6
0.249, 2.070e-6
0.250, 2.132e-6
0.251, 2.195e-6
0.252, 2.258e-6
0.253, 2.322e-6
0.254, 2.390e-6
0.255, 2.458e-6
0.256, 2.526e-6
0.257, 2.595e-6
0.258, 2.662e-6
0.259, 2.732e-6
0.260, 2.807e-6
0.261, 2.879e-6
0.262, 2.953e-6
0.263, 3.027e-6
0.264, 3.102e-6
0.265, 3.177e-6
0.266, 3.255e-6
0.267, 3.333e-6
0.268, 3.414e-6
0.269, 3.495e-6
0.270, 3.573e-6
0.271, 3.654e-6
0.272, 3.737e-6
0.273, 3.819e-6
0.274, 3.901e-6
0.275, 3.991e-6
0.276, 4.080e-6
0.277, 4.169e-6
0.278, 4.260e-6
0.279, 4.354e-6
0.280, 4.443e-6
0.281, 4.533e-6
0.282, 4.630e-6
0.283, 4.728e-6
0.284, 4.821e-6
0.285, 4.915e-6
0.286, 5.007e-6
0.287, 5.102e-6
0.288, 5.198e-6
0.289, 5.295e-6
0.290, 5.396e-6
0.291, 5.502e-6
0.292, 5.608e-6
0.293, 5.707e-6
0.294, 5.815e-6
0.295, 5.928e-6
0.296, 6.030e-6
0.297, 6.124e-6
0.298, 6.224e-6
0.299, 6.332e-6
0.300, 6.426e-6
0.301, 6.537e-6
0.302, 6.642e-6
0.303, 6.744e-6
0.304, 6.850e-6
0.305, 6.960e-6
0.306, 7.076e-6
0.307, 7.195e-6
0.308, 7.316e-6
0.309, 7.422e-6
0.310, 7.535e-6
0.311, 7.644e-6
0.312, 7.764e-6
0.313, 7.874e-6
0.314, 7.981e-6
0.315, 8.097e-6
0.316, 8.216e-6
0.317, 8.341e-6
0.318, 8.472e-6
0.319, 8.593e-6
0.320, 8.726e-6
0.321, 8.859e-6
0.322, 8.985e-6
0.323, 9.105e-6
0.324, 9.228e-6
0.325, 9.350e-6
0.326, 9.483e-6
0.327, 9.619e-6
0.328, 9.760e-6
0.329, 9.901e-6
0.330, 1.003e-5
0.331, 1.017e-5
0.332, 1.028e-5
0.333, 1.041e-5
0.334, 1.056e-5
0.335, 1.069e-5
0.336, 1.083e-5
0.337, 1.098e-5
0.338, 1.112e-5
0.339, 1.127e-5
0.340, 1.142e-5
0.341, 1.155e-5
0.342, 1.170e-5
0.343, 1.185e-5
0.344, 1.203e-5
0.345, 1.219e-5
0.346, 1.235e-5
0.347, 1.251e-5
0.348, 1.266e-5
0.349, 1.280e-5
0.350, 1.295e-5
0.351, 1.311e-5
0.352, 1.327e-5
0.353, 1.342e-5
0.354, 1.358e-5
0.355, 1.376e-5
0.356, 1.391e-5
0.357, 1.406e-5
0.358, 1.422e-5
0.359, 1.441e-5
0.360, 1.458e-5
0.361, 1.475e-5
0.362, 1.491e-5
0.363, 1.507e-5
0.364, 1.523e-5
0.365, 1.541e-5
0.366, 1.558e-5
0.367, 1.577e-5
0.368, 1.594e-5
0.369, 1.612e-5
0.370, 1.628e-5
0.371, 1.643e-5
0.372, 1.661e-5
0.373, 1.680e-5
0.374, 1.699e-5
0.375, 1.716e-5
0.376, 1.733e-5
0.377, 1.749e-5
0.378, 1.765e-5
0.379, 1.784e-5
0.380, 1.804e-5
0.381, 1.821e-5
0.382, 1.838e-5
0.383, 1.854e-5
0.384, 1.872e-5
0.385, 1.890e-5
0.386, 1.907e-5
0.387, 1.923e-5
0.388, 1.940e-5
0.389, 1.959e-5
0.390, 1.978e-5
0.391, 1.996e-5
0.392, 2.013e-5
0.393, 2.028e-5
0.394, 2.047e-5
0.395, 2.062e-5
0.396, 2.079e-5
0.397, 2.100e-5
0.398, 2.121e-5
0.399, 2.139e-5
0.400, 2.153e-5
0.401, 2.168e-5
0.402, 2.183e-5
0.403, 2.201e-5
0.404, 2.219e-5
0.405, 2.237e-5
0.406, 2.252e-5
0.407, 2.270e-5
0.408, 2.291e-5
0.409, 2.306e-5
0.410, 2.321e-5
0.411, 2.336e-5
0.412, 2.352e-5
0.413, 2.368e-5
0.414, 2.383e-5
0.415, 2.399e-5
0.416, 2.416e-5
0.417, 2.432e-5
0.418, 2.451e-5
0.419, 2.465e-5
0.420, 2.481e-5
0.421, 2.493e-5
0.422, 2.507e-5
0.423, 2.521e-5
0.424, 2.539e-5
0.425, 2.556e-5
0.426, 2.573e-5
0.427, 2.590e-5
0.428, 2.607e-5
0.429, 2.621e-5
0.430, 2.634e-5
0.431, 2.650e-5
0.432, 2.665e-5
0.433, 2.681e-5
0.434, 2.695e-5
0.435, 2.713e-5
0.436, 2.725e-5
0.437, 2.739e-5
0.438, 2.753e-5
0.439, 2.766e-5
0.440, 2.782e-5
0.441, 2.799e-5
0.442, 2.814e-5
0.443, 2.826e-5
0.444, 2.838e-5
0.445, 2.855e-5
0.446, 2.872e-5
0.447, 2.885e-5
0.448, 2.898e-5
0.449, 2.914e-5
0.450, 2.933e-5
0.451, 2.948e-5
0.452, 2.959e-5
0.453, 2.974e-5
0.454, 2.985e-5
0.455, 2.999e-5
0.456, 3.013e-5
0.457, 3.027e-5
0.458, 3.038e-5
0.459, 3.048e-5
0.460, 3.061e-5
0.461, 3.077e-5
0.462, 3.089e-5
0.463, 3.102e-5
0.464, 3.119e-5
0.465, 3.134e-5
0.466, 3.147e-5
0.467, 3.165e-5
0.468, 3.182e-5
0.469, 3.197e-5
0.470, 3.213e-5
0.471, 3.228e-5
0.472, 3.243e-5
0.473, 3.255e-5
0.474, 3.269e-5
0.475, 3.283e-5
0.476, 3.298e-5
0.477, 3.314e-5
0.478, 3.329e-5
0.479, 3.345e-5
0.480, 3.360e-5
0.481, 3.379e-5
0.482, 3.399e-5
0.483, 3.421e-5
0.484, 3.441e-5
0.485, 3.457e-5
0.486, 3.474e-5
0.487, 3.491e-5
0.488, 3.508e-5
0.489, 3.527e-5
0.490, 3.545e-5
0.491, 3.564e-5
0.492, 3.589e-5
0.493, 3.607e-5
0.494, 3.624e-5
0.495, 3.639e-5
0.496, 3.651e-5
0.497, 3.661e-5
0.498, 3.671e-5
0.499, 3.685e-5
0.500, 3.696e-5
0.501, 3.715e-5
0.502, 3.736e-5
0.503, 3.754e-5
0.504, 3.776e-5
0.505, 3.797e-5
0.506, 3.816e-5
0.507, 3.833e-5
0.508, 3.853e-5
0.509, 3.876e-5
0.510, 3.897e-5
0.511, 3.918e-5
0.512, 3.941e-5
0.513, 3.963e-5
0.514, 3.981e-5
0.515, 4.007e-5
0.516, 4.036e-5
0.517, 4.060e-5
0.518, 4.085e-5
0.519, 4.106e-5
0.520, 4.130e-5
0.521, 4.158e-5
0.522, 4.185e-5
0.523, 4.208e-5
0.524, 4.235e-5
0.525, 4.263e-5
0.526, 4.294e-5
0.527, 4.325e-5
0.528, 4.351e-5
0.529, 4.373e-5
0.530, 4.400e-5
0.531, 4.430e-5
0.532, 4.461e-5
0.533, 4.487e-5
0.534, 4.514e-5
0.535, 4.541e-5
0.536, 4.570e-5
0.537, 4.600e-5
0.538, 4.629e-5
0.539, 4.665e-5
0.540, 4.699e-5
0.541, 4.728e-5
0.542, 4.754e-5
0.543, 4.788e-5
0.544, 4.819e-5
0.545, 4.855e-5
0.546, 4.891e-5
0.547, 4.924e-5
0.548, 4.961e-5
0.549, 4.998e-5
0.550, 5.033e-5
0.551, 5.072e-5
0.552, 5.105e-5
0.553, 5.139e-5
0.554, 5.177e-5
0.555, 5.215e-5
0.556, 5.249e-5
0.557, 5.288e-5
0.558, 5.329e-5
0.559, 5.368e-5
0.560, 5.402e-5
0.561, 5.437e-5
0.562, 5.479e-5
0.563, 5.524e-5
0.564, 5.567e-5
0.565, 5.597e-5
0.566, 5.635e-5
0.567, 5.677e-5
0.568, 5.719e-5
0.569, 5.758e-5
0.570, 5.798e-5
0.571, 5.843e-5
0.572, 5.891e-5
0.573, 5.938e-5
0.574, 5.987e-5
0.575, 6.031e-5
0.576, 6.079e-5
0.577, 6.127e-5
0.578, 6.171e-5
0.579, 6.216e-5
0.580, 6.262e-5
0.581, 6.315e-5
0.582, 6.366e-5
0.583, 6.419e-5
0.584, 6.470e-5
0.585, 6.519e-5
0.586, 6.568e-5
0.587, 6.623e-5
0.588, 6.672e-5
0.589, 6.725e-5
0.590, 6.779e-5
0.591, 6.831e-5
0.592, 6.880e-5
0.593, 6.937e-5
0.594, 6.994e-5
0.595, 7.049e-5
0.596, 7.103e-5
0.597, 7.159e-5
0.598, 7.214e-5
0.599, 7.274e-5
0.600, 7.331e-5
0.601, 7.382e-5
0.602, 7.439e-5
0.603, 7.502e-5
0.604, 7.561e-5
0.605, 7.618e-5
0.606, 7.680e-5
0.607, 7.742e-5
0.608, 7.804e-5
0.609, 7.864e-5
0.610, 7.917e-5
0.611, 7.975e-5
0.612, 8.036e-5
0.613, 8.102e-5
0.614, 8.167e-5
0.615, 8.231e-5
0.616, 8.298e-5
0.617, 8.362e-5
0.618, 8.425e-5
0.619, 8.488e-5
0.620, 8.553e-5
0.621, 8.620e-5
0.622, 8.690e-5
0.623, 8.763e-5
0.624, 8.827e-5
0.625, 8.892e-5
0.626, 8.960e-5
0.627, 9.033e-5
0.628, 9.109e-5
0.629, 9.187e-5
0.630, 9.261e-5
0.631, 9.334e-5
0.632, 9.395e-5
0.633, 9.459e-5
0.634, 9.532e-5
0.635, 9.610e-5
0.636, 9.686e-5
0.637, 9.763e-5
0.638, 9.836e-5
0.639, 9.916e-5
0.640, 9.996e-5
0.641, 1.007e-4
0.642, 1.014e-4
0.643, 1.021e-4
0.644, 1.029e-4
0.645, 1.036e-4
0.646, 1.045e-4
0.647, 1.053e-4
0.648, 1.061e-4
0.649, 1.069e-4
0.650, 1.076e-4
0.651, 1.084e-4
0.652, 1.092e-4
0.653, 1.101e-4
0.654, 1.109e-4
0.655, 1.116e-4
0.656, 1.124e-4
0.657, 1.132e-4
0.658, 1.140e-4
0.659, 1.148e-4
0.660, 1.156e-4
0.661, 1.164e-4
0.662, 1.173e-4
0.663, 1.181e-4
0.664, 1.189e-4
0.665, 1.198e-4
0.666, 1.206e-4
0.667, 1.215e-4
0.668, 1.224e-4
0.669, 1.232e-4
0.670, 1.240e-4
0.671, 1.249e-4
0.672, 1.258e-4
0.673, 1.266e-4
0.674, 1.275e-4
0.675, 1.285e-4
0.676, 1.293e-4
0.677, 1.302e-4
0.678, 1.310e-4
0.679, 1.318e-4
0.680, 1.327e-4
0.681, 1.336e-4
0.682, 1.345e-4
0.683, 1.353e-4
0.684, 1.362e-4
0.685, 1.370e-4
0.686, 1.379e-4
0.687, 1.388e-4
0.688, 1.396e-4
0.689, 1.405e-4
0.690, 1.414e-4
0.691, 1.424e-4
0.692, 1.433e-4
0.693, 1.442e-4
0.694, 1.451e-4
0.695, 1.461e-4
0.696, 1.469e-4
0.697, 1.478e-4
0.698, 1.488e-4
0.699, 1.497e-4
0.700, 1.507e-4
0.701, 1.516e-4
0.702, 1.525e-4
0.703, 1.534e-4
0.704, 1.544e-4
0.705, 1.554e-4
0.706, 1.563e-4
0.707, 1.573e-4
0.708, 1.582e-4
0.709, 1.592e-4
0.710, 1.601e-4
0.711, 1.611e-4
0.712, 1.621e-4
0.713, 1.630e-4
0.714, 1.640e-4
0.715, 1.649e-4
0.716, 1.659e-4
0.717, 1.669e-4
0.718, 1.678e-4
0.719, 1.688e-4
0.720, 1.698e-4
0.721, 1.707e-4
0.722, 1.716e-4
0.723, 1.726e-4
0.724, 1.736e-4
0.725, 1.746e-4
0.726, 1.756e-4
0.727, 1.766e-4
0.728, 1.777e-4
0.729, 1.786e-4
0.730, 1.796e-4
0.731, 1.806e-4
0.732, 1.817e-4
0.733, 1.827e-4
0.734, 1.837e-4
0.735, 1.846e-4
0.736, 1.857e-4
0.737, 1.866e-4
0.738, 1.876e-4
0.739, 1.887e-4
0.740, 1.898e-4
0.741, 1.909e-4
0.742, 1.919e-4
0.743, 1.930e-4
0.744, 1.941e-4
0.745, 1.951e-4
0.746, 1.963e-4
0.747, 1.974e-4
0.748, 1.984e-4
0.749, 1.996e-4
0.750, 2.007e-4
0.751, 2.017e-4
0.752, 2.029e-4
0.753, 2.040e-4
0.754, 2.051e-4
0.755, 2.063e-4
0.756, 2.074e-4
0.757, 2.085e-4
0.758, 2.096e-4
0.759, 2.108e-4
0.760, 2.120e-4
0.761, 2.131e-4
0.762, 2.143e-4
0.763, 2.155e-4
0.764, 2.166e-4
0.765, 2.178e-4
0.766, 2.190e-4
0.767, 2.203e-4
0.768, 2.215e-4
0.769, 2.226e-4
0.770, 2.238e-4
0.771, 2.251e-4
0.772, 2.263e-4
0.773, 2.276e-4
0.774, 2.289e-4
0.775, 2.301e-4
0.776, 2.315e-4
0.777, 2.327e-4
0.778, 2.339e-4
0.779, 2.353e-4
0.780, 2.366e-4
0.781, 2.378e-4
0.782, 2.391e-4
0.783, 2.404e-4
0.784, 2.417e-4
0.785, 2.429e-4
0.786, 2.441e-4
0.787, 2.455e-4
0.788, 2.468e-4
0.789, 2.481e-4
0.790, 2.494e-4
0.791, 2.507e-4
0.792, 2.520e-4
0.793, 2.534e-4
0.794, 2.548e-4
0.795, 2.561e-4
0.796, 2.574e-4
0.797, 2.588e-4
0.798, 2.601e-4
0.799, 2.616e-4
0.800, 2.627e-4
0.799, 2.610e-4
0.798, 2.578e-4
0.797, 2.546e-4
0.796, 2.515e-4
0.795, 2.485e-4
0.794, 2.455e-4
0.793, 2.426e-4
0.792, 2.399e-4
0.791, 2.372e-4
0.790, 2.345e-4
0.789, 2.319e-4
0.788, 2.293e-4
0.787, 2.267e-4
0.786, 2.241e-4
0.785, 2.215e-4
0.784, 2.190e-4
0.783, 2.165e-4
0.782, 2.140e-4
0.781, 2.115e-4
0.780, 2.093e-4
0.779, 2.070e-4
0.778, 2.047e-4
0.777, 2.024e-4
0.776, 2.002e-4
0.775, 1.980e-4
0.774, 1.958e-4
0.773, 1.936e-4
0.772, 1.915e-4
0.771, 1.895e-4
0.770, 1.874e-4
0.769, 1.854e-4
0.768, 1.834e-4
0.767, 1.814e-4
0.766, 1.795e-4
0.765, 1.774e-4
0.764, 1.755e-4
0.763, 1.737e-4
0.762, 1.718e-4
0.761, 1.699e-4
0.760, 1.679e-4
0.759, 1.661e-4
0.758, 1.643e-4
0.757, 1.624e-4
0.756, 1.607e-4
0.755, 1.591e-4
0.754, 1.574e-4
0.753, 1.557e-4
0.752, 1.540e-4
0.751, 1.523e-4
0.750, 1.507e-4
0.749, 1.490e-4
0.748, 1.474e-4
0.747, 1.458e-4
0.746, 1.442e-4
0.745, 1.426e-4
0.744, 1.410e-4
0.743, 1.395e-4
0.742, 1.380e-4
0.741, 1.365e-4
0.740, 1.350e-4
0.739, 1.336e-4
0.738, 1.323e-4
0.737, 1.309e-4
0.736, 1.295e-4
0.735, 1.281e-4
0.734, 1.268e-4
0.733, 1.255e-4
0.732, 1.241e-4
0.731, 1.228e-4
0.730, 1.214e-4
0.729, 1.201e-4
0.728, 1.188e-4
0.727, 1.176e-4
0.726, 1.164e-4
0.725, 1.151e-4
0.724, 1.140e-4
0.723, 1.128e-4
0.722, 1.115e-4
0.721, 1.104e-4
0.720, 1.093e-4
0.719, 1.081e-4
0.718, 1.069e-4
0.717, 1.057e-4
0.716, 1.047e-4
0.715, 1.036e-4
0.714, 1.024e-4
0.713, 1.013e-4
0.712, 1.003e-4
0.711, 9.922e-5
0.710, 9.820e-5
0.709, 9.715e-5
0.708, 9.612e-5
0.707, 9.511e-5
0.706, 9.412e-5
0.705, 9.315e-5
0.704, 9.213e-5
0.703, 9.114e-5
0.702, 9.024e-5
0.701, 8.927e-5
0.700, 8.829e-5
0.699, 8.738e-5
0.698, 8.650e-5
0.697, 8.561e-5
0.696, 8.475e-5
0.695, 8.387e-5
0.694, 8.298e-5
0.693, 8.210e-5
0.692, 8.120e-5
0.691, 8.038e-5
0.690, 7.954e-5
0.689, 7.873e-5
0.688, 7.793e-5
0.687, 7.714e-5
0.686, 7.636e-5
0.685, 7.555e-5
0.684, 7.477e-5
0.683, 7.394e-5
0.682, 7.312e-5
0.681, 7.234e-5
0.680, 7.157e-5
0.679, 7.085e-5
0.678, 7.010e-5
0.677, 6.936e-5
0.676, 6.866e-5
0.675, 6.797e-5
0.674, 6.727e-5
0.673, 6.658e-5
0.672, 6.588e-5
0.671, 6.520e-5
0.670, 6.449e-5
0.669, 6.381e-5
0.668, 6.315e-5
0.667, 6.245e-5
0.666, 6.178e-5
0.665, 6.117e-5
0.664, 6.054e-5
0.663, 5.990e-5
0.662, 5.927e-5
0.661, 5.864e-5
0.660, 5.803e-5
0.659, 5.736e-5
0.658, 5.673e-5
0.657, 5.613e-5
0.656, 5.555e-5
0.655, 5.495e-5
0.654, 5.434e-5
0.653, 5.375e-5
0.652, 5.318e-5
0.651, 5.262e-5
0.650, 5.209e-5
0.649, 5.153e-5
0.648, 5.100e-5
0.647, 5.047e-5
0.646, 4.998e-5
0.645, 4.947e-5
0.644, 4.894e-5
0.643, 4.839e-5
0.642, 4.784e-5
0.641, 4.732e-5
0.640, 4.682e-5
0.639, 4.627e-5
0.638, 4.574e-5
0.637, 4.523e-5
0.636, 4.473e-5
0.635, 4.423e-5
0.634, 4.377e-5
0.633, 4.331e-5
0.632, 4.283e-5
0.631, 4.238e-5
0.630, 4.197e-5
0.629, 4.152e-5
0.628, 4.104e-5
0.627, 4.054e-5
0.626, 4.007e-5
0.625, 3.962e-5
0.624, 3.916e-5
0.623, 3.873e-5
0.622, 3.833e-5
0.621, 3.792e-5
0.620, 3.750e-5
0.619, 3.707e-5
0.618, 3.664e-5
0.617, 3.621e-5
0.616, 3.583e-5
0.615, 3.549e-5
0.614, 3.507e-5
0.613, 3.466e-5
0.612, 3.426e-5
0.611, 3.382e-5
0.610, 3.343e-5
0.609, 3.308e-5
0.608, 3.275e-5
0.607, 3.238e-5
0.606, 3.199e-5
0.605, 3.159e-5
0.604, 3.124e-5
0.603, 3.089e-5
0.602, 3.052e-5
0.601, 3.018e-5
0.600, 2.986e-5
0.599, 2.953e-5
0.598, 2.918e-5
0.597, 2.883e-5
0.596, 2.850e-5
0.595, 2.816e-5
0.594, 2.781e-5
0.593, 2.746e-5
0.592, 2.714e-5
0.591, 2.682e-5
0.590, 2.649e-5
0.589, 2.614e-5
0.588, 2.582e-5
0.587, 2.551e-5
0.586, 2.521e-5
0.585, 2.490e-5
0.584, 2.459e-5
0.583, 2.429e-5
0.582, 2.400e-5
0.581, 2.371e-5
0.580, 2.341e-5
0.579, 2.311e-5
0.578, 2.282e-5
0.577, 2.252e-5
0.576, 2.226e-5
0.575, 2.200e-5
0.574, 2.172e-5
0.573, 2.143e-5
0.572, 2.117e-5
0.571, 2.088e-5
0.570, 2.061e-5
0.569, 2.034e-5
0.568, 2.007e-5
0.567, 1.983e-5
0.566, 1.957e-5
0.565, 1.930e-5
0.564, 1.905e-5
0.563, 1.880e-5
0.562, 1.858e-5
0.561, 1.835e-5
0.560, 1.810e-5
0.559, 1.786e-5
0.558, 1.762e-5
0.557, 1.739e-5
0.556, 1.717e-5
0.555, 1.694e-5
0.554, 1.671e-5
0.553, 1.650e-5
0.552, 1.629e-5
0.551, 1.605e-5
0.550, 1.583e-5
0.549, 1.559e-5
0.548, 1.540e-5
0.547, 1.518e-5
0.546, 1.496e-5
0.545, 1.476e-5
0.544, 1.455e-5
0.543, 1.434e-5
0.542, 1.415e-5
0.541, 1.394e-5
0.540, 1.375e-5
0.539, 1.356e-5
0.538, 1.337e-5
0.537, 1.317e-5
0.536, 1.298e-5
0.535, 1.279e-5
0.534, 1.260e-5
0.533, 1.241e-5
0.532, 1.224e-5
0.531, 1.207e-5
0.530, 1.189e-5
0.529, 1.173e-5
0.528, 1.155e-5
0.527, 1.139e-5
0.526, 1.122e-5
0.525, 1.106e-5
0.524, 1.089e-5
0.523, 1.073e-5
0.522, 1.055e-5
0.521, 1.040e-5
0.520, 1.024e-5
0.519, 1.008e-5
0.518, 9.916e-6
0.517, 9.760e-6
0.516, 9.611e-6
0.515, 9.455e-6
0.514, 9.298e-6
0.513, 9.157e-6
0.512, 8.995e-6
0.511, 8.847e-6
0.510, 8.702e-6
0.509, 8.553e-6
0.508, 8.422e-6
0.507, 8.274e-6
0.506, 8.128e-6
0.505, 7.991e-6
0.504, 7.856e-6
0.503, 7.720e-6
0.502, 7.586e-6
0.501, 7.458e-6
0.500, 7.329e-6
0.499, 7.200e-6
0.498, 7.066e-6
0.497, 6.940e-6
0.496, 6.805e-6
0.495, 6.676e-6
0.494, 6.547e-6
0.493, 6.415e-6
0.492, 6.293e-6
0.491, 6.174e-6
0.490, 6.053e-6
0.489, 5.937e-6
0.488, 5.803e-6
0.487, 5.684e-6
0.486, 5.583e-6
0.485, 5.462e-6
0.484, 5.347e-6
0.483, 5.228e-6
0.482, 5.108e-6
0.481, 5.001e-6
0.480, 4.893e-6
0.479, 4.789e-6
0.478, 4.680e-6
0.477, 4.561e-6
0.476, 4.459e-6
0.475, 4.343e-6
0.474, 4.225e-6
0.473, 4.122e-6
0.472, 4.021e-6
0.471, 3.921e-6
0.470, 3.825e-6
0.469, 3.732e-6
0.468, 3.644e-6
0.467, 3.546e-6
0.466, 3.450e-6
0.465, 3.359e-6
0.464, 3.266e-6
0.463, 3.172e-6
0.462, 3.083e-6
0.461, 2.981e-6
0.460, 2.881e-6
0.459, 2.795e-6
0.458, 2.701e-6
0.457, 2.611e-6
0.456, 2.518e-6
0.455, 2.431e-6
0.454, 2.344e-6
0.453, 2.257e-6
0.452, 2.174e-6
0.451, 2.091e-6
0.450, 2.012e-6
0.449, 1.924e-6
0.448, 1.832e-6
0.447, 1.749e-6
0.446, 1.670e-6
0.445, 1.582e-6
0.444, 1.507e-6
0.443, 1.424e-6
0.442, 1.344e-6
0.441, 1.268e-6
0.440, 1.186e-6
0.439, 1.113e-6
0.438, 1.035e-6
0.437, 9.592e-7
0.436, 8.817e-7
0.435, 7.994e-7
0.434, 7.244e-7
0.433, 6.532e-7
0.432, 5.734e-7
0.431, 5.030e-7
0.430, 4.332e-7
0.429, 3.584e-7
0.428, 2.855e-7
0.427, 2.144e-7
0.426, 1.447e-7
0.425, 7.548e-8
0.424, 1.947e-9
0.423, -6.481e-8
0.422, -1.325e-7
0.421, -2.011e-7
0.420, -2.665e-7
0.419, -3.334e-7
0.418, -3.995e-7
0.417, -4.634e-7
0.416, -5.337e-7
0.415, -6.013e-7
0.414, -6.705e-7
0.413, -7.385e-7
0.412, -8.021e-7
0.411, -8.676e-7
0.410, -9.353e-7
0.409, -9.975e-7
0.408, -1.058e-6
0.407, -1.120e-6
0.406, -1.183e-6
0.405, -1.242e-6
0.404, -1.295e-6
0.403, -1.352e-6
0.402, -1.411e-6
0.401, -1.467e-6
0.400, -1.529e-6
0.399, -1.584e-6
0.398, -1.641e-6
0.397, -1.701e-6
0.396, -1.762e-6
0.395, -1.818e-6
0.394, -1.879e-6
0.393, -1.932e-6
0.392, -1.980e-6
0.391, -2.034e-6
0.390, -2.089e-6
0.389, -2.147e-6
0.388, -2.200e-6
0.387, -2.251e-6
0.386, -2.305e-6
0.385, -2.358e-6
0.384, -2.412e-6
0.383, -2.465e-6
0.382, -2.516e-6
0.381, -2.568e-6
0.380, -2.620e-6
0.379, -2.660e-6
0.378, -2.712e-6
0.377, -2.770e-6
0.376, -2.824e-6
0.375, -2.876e-6
0.374, -2.924e-6
0.373, -2.975e-6
0.372, -3.018e-6
0.371, -3.076e-6
0.370, -3.130e-6
0.369, -3.173e-6
0.368, -3.222e-6
0.367, -3.268e-6
0.366, -3.312e-6
0.365, -3.359e-6
0.364, -3.405e-6
0.363, -3.453e-6
0.362, -3.508e-6
0.361, -3.550e-6
0.360, -3.593e-6
0.359, -3.633e-6
0.358, -3.674e-6
0.357, -3.719e-6
0.356, -3.759e-6
0.355, -3.813e-6
0.354, -3.860e-6
0.353, -3.900e-6
0.352, -3.945e-6
0.351, -3.989e-6
0.350, -4.030e-6
0.349, -4.076e-6
0.348, -4.117e-6
0.347, -4.160e-6
0.346, -4.209e-6
0.345, -4.250e-6
0.344, -4.286e-6
0.343, -4.325e-6
0.342, -4.369e-6
0.341, -4.411e-6
0.340, -4.454e-6
0.339, -4.498e-6
0.338, -4.543e-6
0.337, -4.578e-6
0.336, -4.617e-6
0.335, -4.660e-6
0.334, -4.693e-6
0.333, -4.739e-6
0.332, -4.783e-6
0.331, -4.825e-6
0.330, -4.865e-6
0.329, -4.901e-6
0.328, -4.933e-6
0.327, -4.967e-6
0.326, -5.008e-6
0.325, -5.049e-6
0.324, -5.082e-6
0.323, -5.123e-6
0.322, -5.166e-6
0.321, -5.207e-6
0.320, -5.248e-6
0.319, -5.284e-6
0.318, -5.316e-6
0.317, -5.353e-6
0.316, -5.390e-6
0.315, -5.429e-6
0.314, -5.464e-6
0.313, -5.500e-6
0.312, -5.539e-6
0.311, -5.579e-6
0.310, -5.613e-6
0.309, -5.644e-6
0.308, -5.678e-6
0.307, -5.718e-6
0.306, -5.752e-6
0.305, -5.784e-6
0.304, -5.815e-6
0.303, -5.846e-6
0.302, -5.878e-6
0.301, -5.911e-6
0.300, -5.942e-6
0.299, -5.977e-6
0.298, -6.013e-6
0.297, -6.041e-6
0.296, -6.070e-6
0.295, -6.112e-6
0.294, -6.147e-6
0.293, -6.182e-6
0.292, -6.211e-6
0.291, -6.237e-6
0.290, -6.262e-6
0.289, -6.285e-6
0.288, -6.320e-6
0.287, -6.351e-6
0.286, -6.386e-6
0.285, -6.409e-6
0.284, -6.423e-6
0.283, -6.451e-6
0.282, -6.480e-6
0.281, -6.510e-6
0.280, -6.541e-6
0.279, -6.579e-6
0.278, -6.617e-6
0.277, -6.637e-6
0.276, -6.645e-6
0.275, -6.680e-6
0.274, -6.703e-6
0.273, -6.716e-6
0.272, -6.742e-6
0.271, -6.774e-6
0.270, -6.804e-6
0.269, -6.833e-6
0.268, -6.851e-6
0.267, -6.868e-6
0.266, -6.892e-6
0.265, -6.908e-6
0.264, -6.928e-6
0.263, -6.950e-6
0.262, -6.956e-6
0.261, -6.975e-6
0.260, -6.995e-6
0.259, -7.006e-6
0.258, -7.024e-6
0.257, -7.042e-6
0.256, -7.058e-6
0.255, -7.079e-6
0.254, -7.095e-6
0.253, -7.119e-6
0.252, -7.126e-6
0.251, -7.138e-6
0.250, -7.167e-6
0.249, -7.180e-6
0.248, -7.203e-6
0.247, -7.234e-6
0.246, -7.248e-6
0.245, -7.253e-6
0.244, -7.271e-6
0.243, -7.296e-6
0.242, -7.301e-6
0.241, -7.295e-6
0.240, -7.306e-6
0.239, -7.314e-6
0.238, -7.330e-6
0.237, -7.356e-6
0.236, -7.359e-6
0.235, -7.362e-6
0.234, -7.357e-6
0.233, -7.364e-6
0.232, -7.384e-6
0.231, -7.408e-6
0.230, -7.416e-6
0.229, -7.432e-6
0.228, -7.448e-6
0.227, -7.482e-6
0.226, -7.487e-6
0.225, -7.469e-6
0.224, -7.462e-6
0.223, -7.457e-6
0.222, -7.460e-6
0.221, -7.449e-6
0.220, -7.447e-6
0.219, -7.450e-6
0.218, -7.455e-6
0.217, -7.454e-6
0.216, -7.458e-6
0.215, -7.450e-6
0.214, -7.445e-6
0.213, -7.439e-6
0.212, -7.435e-6
0.211, -7.432e-6
0.210, -7.402e-6
0.209, -7.376e-6
0.208, -7.366e-6
0.207, -7.382e-6
0.206, -7.378e-6
0.205, -7.374e-6
0.204, -7.381e-6
0.203, -7.367e-6
0.202, -7.353e-6
0.201, -7.340e-6
0.200, -7.319e-6
0.199, -7.308e-6
0.198, -7.301e-6
0.197, -7.298e-6
0.196, -7.295e-6
0.195, -7.289e-6
0.194, -7.286e-6
0.193, -7.291e-6
0.192, -7.276e-6
0.191, -7.260e-6
0.190, -7.246e-6
0.189, -7.235e-6
0.188, -7.237e-6
0.187, -7.226e-6
0.186, -7.209e-6
0.185, -7.211e-6
0.184, -7.214e-6
0.183, -7.204e-6
0.182, -7.209e-6
0.181, -7.202e-6
0.180, -7.186e-6
0.179, -7.171e-6
0.178, -7.159e-6
0.177, -7.143e-6
0.176, -7.130e-6
0.175, -7.133e-6
0.174, -7.128e-6
0.173, -7.136e-6
0.172, -7.129e-6
0.171, -7.100e-6
0.170, -7.085e-6
0.169, -7.088e-6
0.168, -7.059e-6
0.167, -7.046e-6
0.166, -7.023e-6
0.165, -6.994e-6
0.164, -6.973e-6
0.163, -6.972e-6
0.162, -6.966e-6
0.161, -6.958e-6
0.160, -6.940e-6
0.159, -6.929e-6
0.158, -6.925e-6
0.157, -6.922e-6
0.156, -6.904e-6
0.155, -6.887e-6
0.154, -6.872e-6
0.153, -6.859e-6
0.152, -6.846e-6
0.151, -6.832e-6
0.150, -6.828e-6
0.149, -6.812e-6
0.148, -6.806e-6
0.147, -6.801e-6
0.146, -6.791e-6
0.145, -6.771e-6
0.144, -6.759e-6
0.143, -6.765e-6
0.142, -6.765e-6
0.141, -6.752e-6
0.140, -6.743e-6
0.139, -6.725e-6
0.138, -6.710e-6
0.137, -6.711e-6
0.136, -6.708e-6
0.135, -6.700e-6
0.134, -6.700e-6
0.133, -6.666e-6
0.132, -6.636e-6
0.131, -6.624e-6
0.130, -6.602e-6
0.129, -6.577e-6
0.128, -6.583e-6
0.127, -6.587e-6
0.126, -6.569e-6
0.125, -6.541e-6
0.124, -6.534e-6
0.123, -6.523e-6
0.122, -6.518e-6
0.121, -6.509e-6
0.120, -6.510e-6
0.119, -6.511e-6
0.118, -6.522e-6
0.117, -6.489e-6
0.116, -6.473e-6
0.115, -6.439e-6
0.114, -6.422e-6
0.113, -6.419e-6
0.112, -6.400e-6
0.111, -6.374e-6
0.110, -6.349e-6
0.109, -6.328e-6
0.108, -6.314e-6
0.107, -6.289e-6
0.106, -6.298e-6
0.105, -6.298e-6
0.104, -6.293e-6
0.103, -6.273e-6
0.102, -6.253e-6
0.101, -6.244e-6
0.100, -6.246e-6
0.099, -6.237e-6
0.098, -6.221e-6
0.097, -6.207e-6
0.096, -6.188e-6
0.095, -6.177e-6
0.094, -6.168e-6
0.093, -6.156e-6
0.092, -6.151e-6
0.091, -6.136e-6
0.090, -6.120e-6
0.089, -6.115e-6
0.088, -6.100e-6
0.087, -6.088e-6
0.086, -6.078e-6
0.085, -6.080e-6
0.084, -6.055e-6
0.083, -6.042e-6
0.082, -6.030e-6
0.081, -6.006e-6
0.080, -5.993e-6
0.079, -5.991e-6
0.078, -5.990e-6
0.077, -5.976e-6
0.076, -5.969e-6
0.075, -5.968e-6
0.074, -5.961e-6
0.073, -5.964e-6
0.072, -5.957e-6
0.071, -5.932e-6
0.070, -5.927e-6
0.069, -5.934e-6
0.068, -5.906e-6
0.067, -5.887e-6
0.066, -5.868e-6
0.065, -5.860e-6
0.064, -5.849e-6
0.063, -5.836e-6
0.062, -5.828e-6
0.061, -5.826e-6
0.060, -5.818e-6
0.059, -5.804e-6
0.058, -5.793e-6
0.057, -5.781e-6
0.056, -5.757e-6
0.055, -5.746e-6
0.054, -5.724e-6
0.053, -5.707e-6
0.052, -5.698e-6
0.051, -5.713e-6
0.050, -5.700e-6
0.049, -5.686e-6
0.048, -5.676e-6
0.047, -5.666e-6
0.046, -5.665e-6
0.045, -5.651e-6
0.044, -5.639e-6
0.043, -5.623e-6
0.042, -5.609e-6
0.041, -5.599e-6
0.040, -5.588e-6
0.039, -5.574e-6
0.038, -5.560e-6
0.037, -5.551e-6
0.036, -5.541e-6
0.035, -5.529e-6
0.034, -5.521e-6
0.033, -5.515e-6
0.032, -5.506e-6
0.031, -5.490e-6
0.030, -5.476e-6
0.029, -5.484e-6
0.028, -5.464e-6
0.027, -5.453e-6
0.026, -5.448e-6
0.025, -5.434e-6
0.024, -5.430e-6
0.023, -5.426e-6
0.022, -5.412e-6
0.021, -5.397e-6
0.020, -5.376e-6
0.019, -5.363e-6
0.018, -5.356e-6
0.017, -5.341e-6
0.016, -5.329e-6
0.015, -5.329e-6
0.014, -5.323e-6
0.013, -5.313e-6
0.012, -5.302e-6
0.011, -5.303e-6
0.010, -5.296e-6
0.009, -5.276e-6
0.008, -5.251e-6
0.007, -5.239e-6
0.006, -5.223e-6
0.005, -5.219e-6
0.004, -5.207e-6
0.003, -5.190e-6
0.002, -5.185e-6
0.001, -5.169e-6
